# TOPAS Version: 3.9
# Parameter File: proton_230MeV_v3.txt
# Results for scorer: DoseAtPhantom
# Scored in component: Phantom
# X in 1 bin  of 1 cm
# Y in 1 bin  of 1 cm
# Z in 350 bins of 0.1 cm
# DoseToMedium ( Gy ) : Sum   Standard_Deviation   
0, 0, 0, 2.071574272122234e-05, 6.058515684037299e-10
0, 0, 1, 2.128530650225002e-05, 6.511445485012821e-10
0, 0, 2, 2.116987525369041e-05, 5.618948848094071e-10
0, 0, 3, 2.14957235584734e-05, 6.564770424888295e-10
0, 0, 4, 2.153314017050434e-05, 6.597688399672479e-10
0, 0, 5, 2.167504317185376e-05, 6.548982153535063e-10
0, 0, 6, 2.173857683374081e-05, 6.532027291754733e-10
0, 0, 7, 2.148611201846506e-05, 5.357619949542164e-10
0, 0, 8, 2.161098746000789e-05, 5.997825700222411e-10
0, 0, 9, 2.171396226913203e-05, 6.214824764212374e-10
0, 0, 10, 2.18474287976278e-05, 6.621825027460269e-10
0, 0, 11, 2.164342186006252e-05, 5.786226865725868e-10
0, 0, 12, 2.149780630134046e-05, 5.326047721640224e-10
0, 0, 13, 2.165643854823429e-05, 5.085460352237765e-10
0, 0, 14, 2.205646342190448e-05, 6.888499109566421e-10
0, 0, 15, 2.193870204791892e-05, 6.968268433787926e-10
0, 0, 16, 2.184343429689761e-05, 6.842215727273934e-10
0, 0, 17, 2.191608655266464e-05, 6.81021802015797e-10
0, 0, 18, 2.184307413699571e-05, 6.141659934850373e-10
0, 0, 19, 2.179807052016258e-05, 6.147286134082084e-10
0, 0, 20, 2.182619573432021e-05, 5.361933767275469e-10
0, 0, 21, 2.189268525398802e-05, 5.73698263309311e-10
0, 0, 22, 2.20056372199906e-05, 6.12879613362688e-10
0, 0, 23, 2.198269248765428e-05, 6.518391851890599e-10
0, 0, 24, 2.178467730118427e-05, 5.884297843148858e-10
0, 0, 25, 2.191452040278818e-05, 5.793626930334841e-10
0, 0, 26, 2.209544254583307e-05, 6.822583779516916e-10
0, 0, 27, 2.209958984167315e-05, 6.496242615827625e-10
0, 0, 28, 2.189466249546967e-05, 5.469379757713827e-10
0, 0, 29, 2.235653664683923e-05, 7.397335924303372e-10
0, 0, 30, 2.189556107623503e-05, 5.604843653626761e-10
0, 0, 31, 2.192718238802627e-05, 5.382476669195866e-10
0, 0, 32, 2.221267095592339e-05, 6.683381599350751e-10
0, 0, 33, 2.241866786789615e-05, 7.666783339657279e-10
0, 0, 34, 2.189771839766763e-05, 5.432753710032243e-10
0, 0, 35, 2.197148205596022e-05, 5.81756641528348e-10
0, 0, 36, 2.211829996667802e-05, 6.536730416835594e-10
0, 0, 37, 2.204812335548922e-05, 5.950399121089473e-10
0, 0, 38, 2.179938746849075e-05, 4.969347966507609e-10
0, 0, 39, 2.202968062192667e-05, 6.541437162208671e-10
0, 0, 40, 2.197732101194561e-05, 5.544011469903781e-10
0, 0, 41, 2.199077971454244e-05, 5.39513041163087e-10
0, 0, 42, 2.235088868474122e-05, 7.560414535210649e-10
0, 0, 43, 2.204873089795001e-05, 5.779818563021913e-10
0, 0, 44, 2.191377097915392e-05, 5.121289725558189e-10
0, 0, 45, 2.229617894045077e-05, 6.722857609445937e-10
0, 0, 46, 2.249537647003308e-05, 7.450943234128328e-10
0, 0, 47, 2.244951610919088e-05, 7.325119732477885e-10
0, 0, 48, 2.23900678975042e-05, 6.564680857160198e-10
0, 0, 49, 2.22016496991273e-05, 5.791649289984812e-10
0, 0, 50, 2.239167224615812e-05, 7.234944545044239e-10
0, 0, 51, 2.182073149015196e-05, 5.068043723146981e-10
0, 0, 52, 2.226959441031795e-05, 6.444922608344919e-10
0, 0, 53, 2.235989813925698e-05, 7.44740880162221e-10
0, 0, 54, 2.231770304206293e-05, 6.50896125505942e-10
0, 0, 55, 2.220498936367221e-05, 6.111125844176669e-10
0, 0, 56, 2.244363167847041e-05, 6.569626578245468e-10
0, 0, 57, 2.226793912996072e-05, 6.23013737624773e-10
0, 0, 58, 2.229242090834305e-05, 6.457904712048596e-10
0, 0, 59, 2.210067941632587e-05, 5.631710343606348e-10
0, 0, 60, 2.238057095382828e-05, 6.969301161210903e-10
0, 0, 61, 2.231467988167424e-05, 6.555025512551884e-10
0, 0, 62, 2.230521749879699e-05, 6.544344967194176e-10
0, 0, 63, 2.216956818301696e-05, 6.007420005522107e-10
0, 0, 64, 2.223209958174266e-05, 6.251764975790083e-10
0, 0, 65, 2.233929990325123e-05, 6.45614188255063e-10
0, 0, 66, 2.20761212403886e-05, 5.487629302931322e-10
0, 0, 67, 2.223350202257279e-05, 6.253085246658861e-10
0, 0, 68, 2.224446689069737e-05, 5.916776709835181e-10
0, 0, 69, 2.253908860438969e-05, 7.134312764673713e-10
0, 0, 70, 2.215229324065149e-05, 5.338092781537946e-10
0, 0, 71, 2.20116889977362e-05, 5.544288824503041e-10
0, 0, 72, 2.228812263638247e-05, 6.335640735655037e-10
0, 0, 73, 2.234100247733295e-05, 6.837114726985427e-10
0, 0, 74, 2.236942054878455e-05, 6.553819103402468e-10
0, 0, 75, 2.239036984974518e-05, 6.452801052344029e-10
0, 0, 76, 2.206754834332969e-05, 5.06106398422615e-10
0, 0, 77, 2.222147486463655e-05, 6.255292921973732e-10
0, 0, 78, 2.231950747955125e-05, 6.566918716109127e-10
0, 0, 79, 2.227906225016341e-05, 6.3075646658847e-10
0, 0, 80, 2.233496707049198e-05, 7.308011668709784e-10
0, 0, 81, 2.217192741227336e-05, 5.98119290645571e-10
0, 0, 82, 2.274712278449442e-05, 8.975637625688228e-10
0, 0, 83, 2.203831718361471e-05, 5.316232631658609e-10
0, 0, 84, 2.240603680547792e-05, 6.428337081248846e-10
0, 0, 85, 2.233155828434974e-05, 6.225372863538187e-10
0, 0, 86, 2.227046388725284e-05, 6.031763325103466e-10
0, 0, 87, 2.232595397799741e-05, 6.216761803633206e-10
0, 0, 88, 2.213779771409463e-05, 6.141688833393325e-10
0, 0, 89, 2.232604492746759e-05, 6.348294488896165e-10
0, 0, 90, 2.250952093163505e-05, 7.084657537111392e-10
0, 0, 91, 2.215200220234692e-05, 5.649793685740831e-10
0, 0, 92, 2.236254476883914e-05, 7.163844341439275e-10
0, 0, 93, 2.215462882304564e-05, 5.499526177905755e-10
0, 0, 94, 2.240728827018756e-05, 6.062756243814776e-10
0, 0, 95, 2.238301931356546e-05, 5.915687446971568e-10
0, 0, 96, 2.235081774415448e-05, 5.495414101405016e-10
0, 0, 97, 2.217218388977926e-05, 5.371093485193205e-10
0, 0, 98, 2.227843833679799e-05, 6.130068590606641e-10
0, 0, 99, 2.239318200736307e-05, 6.889936946382476e-10
0, 0, 100, 2.228889388788957e-05, 6.027338222739716e-10
0, 0, 101, 2.228420271421783e-05, 6.352292144839439e-10
0, 0, 102, 2.231075632153079e-05, 6.212664932341006e-10
0, 0, 103, 2.22782873606775e-05, 5.919155076457107e-10
0, 0, 104, 2.226272044936195e-05, 6.132934637396882e-10
0, 0, 105, 2.230784775747452e-05, 6.324901949815941e-10
0, 0, 106, 2.214296000602189e-05, 5.620299828775007e-10
0, 0, 107, 2.246566873509437e-05, 7.382419152611303e-10
0, 0, 108, 2.232090992038138e-05, 6.445865700091399e-10
0, 0, 109, 2.235785723314621e-05, 6.561657469351469e-10
0, 0, 110, 2.234172097814735e-05, 6.24113937032705e-10
0, 0, 111, 2.247613156214356e-05, 7.004731759884048e-10
0, 0, 112, 2.240748108306434e-05, 6.535167071346759e-10
0, 0, 113, 2.239511559309904e-05, 6.035351692545687e-10
0, 0, 114, 2.223469346063212e-05, 5.584125688821546e-10
0, 0, 115, 2.205694181611761e-05, 5.321795825521996e-10
0, 0, 116, 2.226347714895383e-05, 5.851414691583901e-10
0, 0, 117, 2.204404700023588e-05, 5.068390999477037e-10
0, 0, 118, 2.23782226385083e-05, 6.72679794021789e-10
0, 0, 119, 2.233525265182834e-05, 5.680080231399973e-10
0, 0, 120, 2.243409835500643e-05, 6.76308361656549e-10
0, 0, 121, 2.258010863442905e-05, 7.339106891978983e-10
0, 0, 122, 2.238684282929171e-05, 6.324976623734828e-10
0, 0, 123, 2.217175824625883e-05, 5.354722048073228e-10
0, 0, 124, 2.222685361630283e-05, 5.512735468234469e-10
0, 0, 125, 2.254616629215889e-05, 7.381367292214603e-10
0, 0, 126, 2.222570219601039e-05, 5.522015311469818e-10
0, 0, 127, 2.225413118139841e-05, 5.638145920974781e-10
0, 0, 128, 2.249616954941303e-05, 6.566385004948392e-10
0, 0, 129, 2.2096744942246e-05, 4.929847995062536e-10
0, 0, 130, 2.223908813903108e-05, 6.264626692395097e-10
0, 0, 131, 2.224806121375877e-05, 5.828142939873725e-10
0, 0, 132, 2.217269502580166e-05, 5.543127038568451e-10
0, 0, 133, 2.213323023170233e-05, 5.232492152448099e-10
0, 0, 134, 2.214242704212666e-05, 5.70298955849203e-10
0, 0, 135, 2.208098885603249e-05, 5.380872792775113e-10
0, 0, 136, 2.195615343225654e-05, 5.358427984705979e-10
0, 0, 137, 2.221654176537413e-05, 6.596227594388613e-10
0, 0, 138, 2.233499617432244e-05, 7.098573770607759e-10
0, 0, 139, 2.22777234739624e-05, 5.974418583938168e-10
0, 0, 140, 2.251645491924137e-05, 7.205275551453126e-10
0, 0, 141, 2.252591912110802e-05, 6.602110377477781e-10
0, 0, 142, 2.24406485358486e-05, 6.561497610037888e-10
0, 0, 143, 2.214031337643974e-05, 6.055647705535905e-10
0, 0, 144, 2.238914203189779e-05, 6.195818299406171e-10
0, 0, 145, 2.241978290840052e-05, 6.897131519204119e-10
0, 0, 146, 2.221197428298183e-05, 6.179952527025922e-10
0, 0, 147, 2.18843651964562e-05, 5.439414063890673e-10
0, 0, 148, 2.197109097323846e-05, 5.308770074101221e-10
0, 0, 149, 2.203511758125387e-05, 5.297107432200809e-10
0, 0, 150, 2.198864967795089e-05, 6.053363270329897e-10
0, 0, 151, 2.179398325097281e-05, 5.169511277001544e-10
0, 0, 152, 2.199903974542394e-05, 5.623759734454694e-10
0, 0, 153, 2.196266177634243e-05, 5.561531691338056e-10
0, 0, 154, 2.191937346651684e-05, 5.708736557051986e-10
0, 0, 155, 2.198647052864544e-05, 5.742841358838944e-10
0, 0, 156, 2.205284908995964e-05, 6.047833979582057e-10
0, 0, 157, 2.197963476646692e-05, 6.179281564684768e-10
0, 0, 158, 2.209916237916332e-05, 6.447951784555096e-10
0, 0, 159, 2.221767499577254e-05, 7.282255229701988e-10
0, 0, 160, 2.213040897913743e-05, 6.171397539737214e-10
0, 0, 161, 2.217537075921427e-05, 7.185829826843839e-10
0, 0, 162, 2.191593557654414e-05, 5.814900960469843e-10
0, 0, 163, 2.173159919038881e-05, 5.042319441213007e-10
0, 0, 164, 2.221736031060573e-05, 6.23819400787427e-10
0, 0, 165, 2.196608693338931e-05, 5.49160920461463e-10
0, 0, 166, 2.205549208156299e-05, 5.782606041548546e-10
0, 0, 167, 2.194917578890454e-05, 5.558638307524096e-10
0, 0, 168, 2.193283216911368e-05, 5.860792881052113e-10
0, 0, 169, 2.199548180215061e-05, 6.007141329121183e-10
0, 0, 170, 2.180591400247067e-05, 5.157322893833e-10
0, 0, 171, 2.192565079894848e-05, 6.090850538133918e-10
0, 0, 172, 2.168895480281208e-05, 4.835578414974022e-10
0, 0, 173, 2.184600998589303e-05, 5.205742241210108e-10
0, 0, 174, 2.222215880465228e-05, 7.329232067086405e-10
0, 0, 175, 2.208624573540874e-05, 6.050724052781808e-10
0, 0, 176, 2.208182922913693e-05, 6.367284210022634e-10
0, 0, 177, 2.184122604376171e-05, 5.393192609797821e-10
0, 0, 178, 2.190048871852923e-05, 5.908029941185738e-10
0, 0, 179, 2.21047976083355e-05, 6.665452787790314e-10
0, 0, 180, 2.213105835835449e-05, 6.871790899087463e-10
0, 0, 181, 2.161903285013977e-05, 4.918153082013529e-10
0, 0, 182, 2.23367187572876e-05, 7.574774064592869e-10
0, 0, 183, 2.216196662629955e-05, 7.051604190147225e-10
0, 0, 184, 2.159718314942438e-05, 4.825511988497019e-10
0, 0, 185, 2.169069375668187e-05, 4.982183010755395e-10
0, 0, 186, 2.194668195443228e-05, 6.567149523736593e-10
0, 0, 187, 2.174084875150584e-05, 5.818993902939928e-10
0, 0, 188, 2.192631473008078e-05, 6.318529699398806e-10
0, 0, 189, 2.187350037274882e-05, 5.826120564340159e-10
0, 0, 190, 2.201660390710458e-05, 6.255054471904256e-10
0, 0, 191, 2.186265919590369e-05, 6.154079394767579e-10
0, 0, 192, 2.184023469453678e-05, 5.56511511259469e-10
0, 0, 193, 2.183081778639462e-05, 5.869574335643987e-10
0, 0, 194, 2.173128086724319e-05, 5.354699081021295e-10
0, 0, 195, 2.211209357483312e-05, 7.923969440238927e-10
0, 0, 196, 2.193810541939456e-05, 6.330064702046096e-10
0, 0, 197, 2.185276753152721e-05, 5.506629378209353e-10
0, 0, 198, 2.177984060836025e-05, 5.530495395851003e-10
0, 0, 199, 2.18971908907406e-05, 5.790583902053052e-10
0, 0, 200, 2.206279896199703e-05, 6.83693642618229e-10
0, 0, 201, 2.208366822742391e-05, 6.839639606319375e-10
0, 0, 202, 2.177882743126247e-05, 5.711340891337879e-10
0, 0, 203, 2.15385043702554e-05, 5.343161950552627e-10
0, 0, 204, 2.190838858950883e-05, 6.569208365307014e-10
0, 0, 205, 2.160105759685393e-05, 5.613344274072352e-10
0, 0, 206, 2.15014169953065e-05, 5.667261579811767e-10
0, 0, 207, 2.153315654140897e-05, 5.347085739542032e-10
0, 0, 208, 2.190326631534845e-05, 6.643353007432008e-10
0, 0, 209, 2.147096347471233e-05, 5.342575983667041e-10
0, 0, 210, 2.177807800762821e-05, 6.404719141218896e-10
0, 0, 211, 2.173194116039667e-05, 5.368035506887753e-10
0, 0, 212, 2.171309279219713e-05, 6.22315253862955e-10
0, 0, 213, 2.174362634832505e-05, 5.8418720276002e-10
0, 0, 214, 2.160696021746844e-05, 5.420815278567074e-10
0, 0, 215, 2.149827196262777e-05, 5.257875366463865e-10
0, 0, 216, 2.154000503651332e-05, 5.50102774921037e-10
0, 0, 217, 2.161703923775349e-05, 5.595723589730825e-10
0, 0, 218, 2.179195143980905e-05, 6.155379897567709e-10
0, 0, 219, 2.189463702961802e-05, 6.934584490488488e-10
0, 0, 220, 2.17757133214036e-05, 6.227351390468471e-10
0, 0, 221, 2.157242852263153e-05, 5.457923500862498e-10
0, 0, 222, 2.138218223990407e-05, 4.94121576558687e-10
0, 0, 223, 2.149367719539441e-05, 5.363204558321015e-10
0, 0, 224, 2.147053055523429e-05, 5.501820487138718e-10
0, 0, 225, 2.139354728569742e-05, 5.204943624115923e-10
0, 0, 226, 2.155408583348617e-05, 6.578003860160841e-10
0, 0, 227, 2.152590604964644e-05, 5.829860857812505e-10
0, 0, 228, 2.156146729248576e-05, 5.748691653646499e-10
0, 0, 229, 2.155978108930867e-05, 6.472604283195292e-10
0, 0, 230, 2.167067577829584e-05, 6.568403121107221e-10
0, 0, 231, 2.148532621504273e-05, 6.00981040840522e-10
0, 0, 232, 2.155520814994816e-05, 5.853798708782975e-10
0, 0, 233, 2.173379289160948e-05, 6.367843468389249e-10
0, 0, 234, 2.160160693165381e-05, 6.098600119478207e-10
0, 0, 235, 2.137048431904987e-05, 5.455966148618201e-10
0, 0, 236, 2.14719184441492e-05, 5.881595584458047e-10
0, 0, 237, 2.142827725037932e-05, 5.829638439263721e-10
0, 0, 238, 2.155955007765442e-05, 6.317288533765652e-10
0, 0, 239, 2.172287349822e-05, 6.665675209738337e-10
0, 0, 240, 2.147574014088605e-05, 5.753999113060444e-10
0, 0, 241, 2.150699219782837e-05, 6.000474386715062e-10
0, 0, 242, 2.152721754100639e-05, 5.801934146057459e-10
0, 0, 243, 2.143368692486547e-05, 5.554277921862933e-10
0, 0, 244, 2.150994805560913e-05, 5.433481807013975e-10
0, 0, 245, 2.159657014999539e-05, 6.631605932339111e-10
0, 0, 246, 2.158166898880154e-05, 6.06279123515709e-10
0, 0, 247, 2.160510121029802e-05, 7.040361884675942e-10
0, 0, 248, 2.169784420402721e-05, 6.561790273202884e-10
0, 0, 249, 2.147422128473409e-05, 5.384642628627739e-10
0, 0, 250, 2.169594881706871e-05, 6.086875487806135e-10
0, 0, 251, 2.157639573852066e-05, 5.671607324462711e-10
0, 0, 252, 2.180071533075534e-05, 6.857437218818902e-10
0, 0, 253, 2.174910332541913e-05, 6.400706150896874e-10
0, 0, 254, 2.167147795262281e-05, 6.390857948350084e-10
0, 0, 255, 2.16529042518232e-05, 5.796395059846564e-10
0, 0, 256, 2.154837966372725e-05, 5.321765045116957e-10
0, 0, 257, 2.167941966035869e-05, 6.092702628305778e-10
0, 0, 258, 2.163500721508171e-05, 6.281008526868511e-10
0, 0, 259, 2.157284325221553e-05, 5.697424839365093e-10
0, 0, 260, 2.16900461964542e-05, 6.052715750648063e-10
0, 0, 261, 2.171034429920837e-05, 5.815461423084094e-10
0, 0, 262, 2.198630318162031e-05, 7.133311563132285e-10
0, 0, 263, 2.182476600864902e-05, 6.115306119715207e-10
0, 0, 264, 2.178088834625669e-05, 5.810198593401892e-10
0, 0, 265, 2.189394581364468e-05, 6.163670107123725e-10
0, 0, 266, 2.208316436735913e-05, 6.413691040474411e-10
0, 0, 267, 2.190128907386679e-05, 6.031073756345193e-10
0, 0, 268, 2.178871000069194e-05, 5.633501914567739e-10
0, 0, 269, 2.211213904956821e-05, 6.171078492186237e-10
0, 0, 270, 2.19642861338798e-05, 5.827837975508133e-10
0, 0, 271, 2.210600359831005e-05, 6.150873536676267e-10
0, 0, 272, 2.205024793511257e-05, 5.873426928243861e-10
0, 0, 273, 2.22213966480922e-05, 6.927822824234156e-10
0, 0, 274, 2.200102790084202e-05, 5.518477687752555e-10
0, 0, 275, 2.227353252237663e-05, 6.101640399493315e-10
0, 0, 276, 2.230543213954661e-05, 6.069929258044173e-10
0, 0, 277, 2.248000055260491e-05, 6.395654857926723e-10
0, 0, 278, 2.252793819934595e-05, 6.432833416132467e-10
0, 0, 279, 2.256683001178317e-05, 6.279984792760189e-10
0, 0, 280, 2.252281228720676e-05, 6.4179394547003e-10
0, 0, 281, 2.266430965391919e-05, 6.410753291030859e-10
0, 0, 282, 2.262274938402697e-05, 6.021693648600002e-10
0, 0, 283, 2.284169750055298e-05, 6.164597532173247e-10
0, 0, 284, 2.309535375388805e-05, 6.556286931361731e-10
0, 0, 285, 2.300389860465657e-05, 6.147126589649494e-10
0, 0, 286, 2.295293052156921e-05, 6.032435250273562e-10
0, 0, 287, 2.311614844074938e-05, 6.318501365576668e-10
0, 0, 288, 2.318518818356097e-05, 6.218588259564239e-10
0, 0, 289, 2.326166759303305e-05, 6.374806874952712e-10
0, 0, 290, 2.351045986870304e-05, 6.706355124123948e-10
0, 0, 291, 2.34081999224145e-05, 6.049754290145473e-10
0, 0, 292, 2.394723560428247e-05, 7.316267463767433e-10
0, 0, 293, 2.402979589533061e-05, 7.129909497097489e-10
0, 0, 294, 2.40784738707589e-05, 7.155280115304178e-10
0, 0, 295, 2.413348374830093e-05, 6.913318728251467e-10
0, 0, 296, 2.408580621704459e-05, 6.524830213955412e-10
0, 0, 297, 2.441585638734978e-05, 6.935671256630439e-10
0, 0, 298, 2.473902168276254e-05, 7.698501166722396e-10
0, 0, 299, 2.488401514710858e-05, 7.756979488306093e-10
0, 0, 300, 2.507705175958108e-05, 7.730695248315606e-10
0, 0, 301, 2.510772355890367e-05, 7.150571752643182e-10
0, 0, 302, 2.520710950193461e-05, 6.955045125603532e-10
0, 0, 303, 2.544505696278065e-05, 7.009709002166905e-10
0, 0, 304, 2.568899617472198e-05, 7.132166618879439e-10
0, 0, 305, 2.597463026177138e-05, 7.044232415716442e-10
0, 0, 306, 2.637946454342455e-05, 7.201018826084279e-10
0, 0, 307, 2.671463153092191e-05, 7.375602416451035e-10
0, 0, 308, 2.713281173782889e-05, 7.844004426367014e-10
0, 0, 309, 2.738984403549694e-05, 7.637624553565928e-10
0, 0, 310, 2.762618714768905e-05, 7.523890000698301e-10
0, 0, 311, 2.821569250954781e-05, 7.86339255376282e-10
0, 0, 312, 2.859428241208661e-05, 7.983667288617443e-10
0, 0, 313, 2.918634163506795e-05, 8.158347192240693e-10
0, 0, 314, 2.979887540277559e-05, 8.488624722969994e-10
0, 0, 315, 3.052923420909792e-05, 8.910267773683001e-10
0, 0, 316, 3.126934461761266e-05, 9.161676649476607e-10
0, 0, 317, 3.180930798407644e-05, 8.883506687832007e-10
0, 0, 318, 3.284034028183669e-05, 9.170092774478819e-10
0, 0, 319, 3.413360172999091e-05, 9.769139688065335e-10
0, 0, 320, 3.540903344401158e-05, 1.013240967841449e-09
0, 0, 321, 3.694791303132661e-05, 1.064738980346509e-09
0, 0, 322, 3.899450894095935e-05, 1.13970942634356e-09
0, 0, 323, 4.119025106774643e-05, 1.216044076440929e-09
0, 0, 324, 4.359162994660437e-05, 1.301738558151993e-09
0, 0, 325, 4.647091554943472e-05, 1.430831249573948e-09
0, 0, 326, 4.897337566944771e-05, 1.535758801896078e-09
0, 0, 327, 5.086547025712207e-05, 1.64405937459647e-09
0, 0, 328, 5.172696182853542e-05, 1.738820727041877e-09
0, 0, 329, 5.031522596254945e-05, 1.774403742824056e-09
0, 0, 330, 4.769368024426512e-05, 1.803876825749454e-09
0, 0, 331, 4.245182208251208e-05, 1.763935577001486e-09
0, 0, 332, 3.493192707537673e-05, 1.645815360742967e-09
0, 0, 333, 2.68597523245262e-05, 1.473287238781638e-09
0, 0, 334, 1.92066581803374e-05, 1.271972803202769e-09
0, 0, 335, 1.239749599335482e-05, 1.02596634210324e-09
0, 0, 336, 7.728860509814695e-06, 8.262334238549493e-10
0, 0, 337, 4.539391284197336e-06, 6.42488425980316e-10
0, 0, 338, 2.151509988834732e-06, 4.429854101597563e-10
0, 0, 339, 1.008435560834187e-06, 3.067895398070117e-10
0, 0, 340, 4.168314831076714e-07, 1.998346900482324e-10
0, 0, 341, 1.491547578780228e-07, 1.162281720554136e-10
0, 0, 342, 8.138871976370865e-08, 9.298333939330575e-11
0, 0, 343, 2.217847239194271e-08, 4.132999214112144e-11
0, 0, 344, 8.040151877608537e-10, 1.82544590268021e-12
0, 0, 345, 7.25364934783812e-10, 1.693907488607213e-12
0, 0, 346, 4.343097548265007e-10, 1.031981197733061e-12
0, 0, 347, 9.628478014889197e-10, 1.771120758748742e-12
0, 0, 348, 1.714028696753189e-09, 3.48557102307302e-12
0, 0, 349, 7.202863860911179e-10, 1.611463220217954e-12
