# TOPAS Version: 3.9
# Parameter File: carbone_350MeV.txt
# Results for scorer: DoseAtPhantom
# Scored in component: Phantom
# X in 1 bin  of 1 cm
# Y in 1 bin  of 1 cm
# Z in 350 bins of 0.1 cm
# DoseToMedium ( Gy ) : Sum   Standard_Deviation   
0, 0, 0, 5.602174860541709e-05, 8.358140476476594e-09
0, 0, 1, 5.751625940320082e-05, 8.569390716158129e-09
0, 0, 2, 5.786641122540459e-05, 8.61726407205417e-09
0, 0, 3, 5.800870349048637e-05, 8.638905294112287e-09
0, 0, 4, 5.817258352180943e-05, 8.658632185658192e-09
0, 0, 5, 5.818789577460848e-05, 8.662183591228816e-09
0, 0, 6, 5.831471207784489e-05, 8.677151403287132e-09
0, 0, 7, 5.843648250447586e-05, 8.697873025617503e-09
0, 0, 8, 5.848945147590712e-05, 8.70544495883027e-09
0, 0, 9, 5.853238326380961e-05, 8.708869713643688e-09
0, 0, 10, 5.857836003997363e-05, 8.718654787897806e-09
0, 0, 11, 5.873875852557831e-05, 8.741826832653683e-09
0, 0, 12, 5.880601747776382e-05, 8.752326845432795e-09
0, 0, 13, 5.890282045584172e-05, 8.767255890440971e-09
0, 0, 14, 5.911178232054226e-05, 8.794112974671209e-09
0, 0, 15, 5.920660987612791e-05, 8.812451084861064e-09
0, 0, 16, 5.932449130341411e-05, 8.822545058023811e-09
0, 0, 17, 5.937302921665832e-05, 8.827990017811766e-09
0, 0, 18, 5.959453483228572e-05, 8.863231830987e-09
0, 0, 19, 5.962236900813878e-05, 8.866912036397253e-09
0, 0, 20, 5.952920037088916e-05, 8.849722430623165e-09
0, 0, 21, 5.97912039665971e-05, 8.888170048837451e-09
0, 0, 22, 5.992056685499847e-05, 8.907511340383875e-09
0, 0, 23, 6.005252726026811e-05, 8.925512447462527e-09
0, 0, 24, 6.009717617416754e-05, 8.927042751592869e-09
0, 0, 25, 6.028160714777187e-05, 8.959654348681494e-09
0, 0, 26, 6.033142562955618e-05, 8.967113125957119e-09
0, 0, 27, 6.033638783264905e-05, 8.965915492455455e-09
0, 0, 28, 6.048883369658142e-05, 8.982941541604658e-09
0, 0, 29, 6.082401887397282e-05, 9.029818763271259e-09
0, 0, 30, 6.085932182031684e-05, 9.033037164043034e-09
0, 0, 31, 6.088768350309692e-05, 9.032497669665825e-09
0, 0, 32, 6.103634950704873e-05, 9.058281245225074e-09
0, 0, 33, 6.115921132732183e-05, 9.075963453631393e-09
0, 0, 34, 6.131194822955877e-05, 9.103062696268938e-09
0, 0, 35, 6.133539864094928e-05, 9.100848152199991e-09
0, 0, 36, 6.157047027954832e-05, 9.136665425517435e-09
0, 0, 37, 6.161362398415804e-05, 9.143381197091701e-09
0, 0, 38, 6.171580753289163e-05, 9.158702595341003e-09
0, 0, 39, 6.182976358104497e-05, 9.177964289571825e-09
0, 0, 40, 6.192702858243138e-05, 9.193001872773227e-09
0, 0, 41, 6.205291720107198e-05, 9.209197017988627e-09
0, 0, 42, 6.207849219208583e-05, 9.210526205704143e-09
0, 0, 43, 6.217776535777375e-05, 9.233459920753232e-09
0, 0, 44, 6.229271821212023e-05, 9.247953021583684e-09
0, 0, 45, 6.246247357921675e-05, 9.278429954801813e-09
0, 0, 46, 6.265506090130657e-05, 9.306562447968878e-09
0, 0, 47, 6.264931289479136e-05, 9.308308106371647e-09
0, 0, 48, 6.28878187853843e-05, 9.338693684873252e-09
0, 0, 49, 6.291535100899637e-05, 9.339490186041793e-09
0, 0, 50, 6.310880417004228e-05, 9.369736046337395e-09
0, 0, 51, 6.320184184005484e-05, 9.380354109375593e-09
0, 0, 52, 6.333677447400987e-05, 9.406344315954063e-09
0, 0, 53, 6.350547482725233e-05, 9.432035418379001e-09
0, 0, 54, 6.35939504718408e-05, 9.444990370257293e-09
0, 0, 55, 6.377060344675556e-05, 9.470659584395173e-09
0, 0, 56, 6.394324009306729e-05, 9.492508697273646e-09
0, 0, 57, 6.413100345525891e-05, 9.519952675630002e-09
0, 0, 58, 6.420491263270378e-05, 9.535202146516954e-09
0, 0, 59, 6.426467007258907e-05, 9.541351114732338e-09
0, 0, 60, 6.440512515837327e-05, 9.560632356719486e-09
0, 0, 61, 6.444707832997665e-05, 9.569827550794879e-09
0, 0, 62, 6.459768337663263e-05, 9.596078525825186e-09
0, 0, 63, 6.468864012276754e-05, 9.611806315813807e-09
0, 0, 64, 6.488568033091724e-05, 9.634959529042207e-09
0, 0, 65, 6.503806071123108e-05, 9.658738329794938e-09
0, 0, 66, 6.517049769172445e-05, 9.681617432966766e-09
0, 0, 67, 6.530847895191982e-05, 9.705827541591211e-09
0, 0, 68, 6.541409675264731e-05, 9.724350366545526e-09
0, 0, 69, 6.554795254487544e-05, 9.752469517683036e-09
0, 0, 70, 6.561929330928251e-05, 9.761725636261876e-09
0, 0, 71, 6.574134022230282e-05, 9.782080188729747e-09
0, 0, 72, 6.585257506230846e-05, 9.80131059343958e-09
0, 0, 73, 6.611735443584621e-05, 9.837042767689517e-09
0, 0, 74, 6.621602369705215e-05, 9.856636150211478e-09
0, 0, 75, 6.63110040477477e-05, 9.869697644672196e-09
0, 0, 76, 6.654176831943914e-05, 9.903136864731566e-09
0, 0, 77, 6.6808242991101e-05, 9.93287871031253e-09
0, 0, 78, 6.697239587083459e-05, 9.952284878864821e-09
0, 0, 79, 6.706065323669463e-05, 9.969459825524014e-09
0, 0, 80, 6.724651757394895e-05, 1.000170106122271e-08
0, 0, 81, 6.744742131559178e-05, 1.002893460104714e-08
0, 0, 82, 6.751669570803642e-05, 1.004226977107675e-08
0, 0, 83, 6.768035382265225e-05, 1.006875510989624e-08
0, 0, 84, 6.793813372496516e-05, 1.010333052329225e-08
0, 0, 85, 6.809970363974571e-05, 1.011876239615082e-08
0, 0, 86, 6.833170482423156e-05, 1.015408302951037e-08
0, 0, 87, 6.859115092083812e-05, 1.018631888845755e-08
0, 0, 88, 6.88249638187699e-05, 1.021966216028515e-08
0, 0, 89, 6.90332381054759e-05, 1.025737838655928e-08
0, 0, 90, 6.908847717568278e-05, 1.026542883513327e-08
0, 0, 91, 6.934061093488708e-05, 1.030022289656395e-08
0, 0, 92, 6.941636820556596e-05, 1.031133363260809e-08
0, 0, 93, 6.963242776691914e-05, 1.034802728888823e-08
0, 0, 94, 6.984805077081546e-05, 1.038010028790926e-08
0, 0, 95, 7.001362246228382e-05, 1.04078070571257e-08
0, 0, 96, 7.023926445981488e-05, 1.044057101872664e-08
0, 0, 97, 7.040811760816723e-05, 1.04674954994893e-08
0, 0, 98, 7.049257692415267e-05, 1.048100652742231e-08
0, 0, 99, 7.074941822793335e-05, 1.052180457203609e-08
0, 0, 100, 7.090559665812179e-05, 1.054574374822312e-08
0, 0, 101, 7.112253661034629e-05, 1.057750698698042e-08
0, 0, 102, 7.123237446649e-05, 1.060300951840348e-08
0, 0, 103, 7.155365165090188e-05, 1.065358143141871e-08
0, 0, 104, 7.177191582741216e-05, 1.068248328191613e-08
0, 0, 105, 7.199622632469982e-05, 1.072470236799758e-08
0, 0, 106, 7.205895235529169e-05, 1.073655070335776e-08
0, 0, 107, 7.226522575365379e-05, 1.077225062698322e-08
0, 0, 108, 7.243953587021679e-05, 1.08021433749808e-08
0, 0, 109, 7.271403592312708e-05, 1.084608567964628e-08
0, 0, 110, 7.282042497536168e-05, 1.08648994270547e-08
0, 0, 111, 7.306297629838809e-05, 1.090539206878845e-08
0, 0, 112, 7.335001282626763e-05, 1.094710219013682e-08
0, 0, 113, 7.3596129368525e-05, 1.098405396553365e-08
0, 0, 114, 7.367172656813636e-05, 1.099838880487949e-08
0, 0, 115, 7.410526450257748e-05, 1.106025133005352e-08
0, 0, 116, 7.418757013510913e-05, 1.107952354776083e-08
0, 0, 117, 7.451162673532963e-05, 1.113640468059185e-08
0, 0, 118, 7.466537499567494e-05, 1.115526095965492e-08
0, 0, 119, 7.49482205719687e-05, 1.120622207073758e-08
0, 0, 120, 7.519330392824486e-05, 1.12450254819956e-08
0, 0, 121, 7.534910400863737e-05, 1.127743580375586e-08
0, 0, 122, 7.562182145193219e-05, 1.132270561150502e-08
0, 0, 123, 7.577257929369807e-05, 1.135027363675782e-08
0, 0, 124, 7.606596045661718e-05, 1.140084340054978e-08
0, 0, 125, 7.632237975485623e-05, 1.143952630316364e-08
0, 0, 126, 7.676034147152677e-05, 1.1498008747893e-08
0, 0, 127, 7.704153540544212e-05, 1.153665777837702e-08
0, 0, 128, 7.738561544101685e-05, 1.158133505539785e-08
0, 0, 129, 7.767227361910045e-05, 1.163199368547517e-08
0, 0, 130, 7.794766861479729e-05, 1.167219939438508e-08
0, 0, 131, 7.825507054803893e-05, 1.171457583192781e-08
0, 0, 132, 7.864690269343555e-05, 1.177019897170281e-08
0, 0, 133, 7.89271216490306e-05, 1.181518152242933e-08
0, 0, 134, 7.92648788774386e-05, 1.187403922295602e-08
0, 0, 135, 7.957824709592387e-05, 1.192711953744751e-08
0, 0, 136, 8.008346776477993e-05, 1.199525672932619e-08
0, 0, 137, 8.032410551095381e-05, 1.202948172150022e-08
0, 0, 138, 8.060698746703565e-05, 1.20713887333794e-08
0, 0, 139, 8.102470019366592e-05, 1.214762392001335e-08
0, 0, 140, 8.120052370941266e-05, 1.217872123587048e-08
0, 0, 141, 8.157150296028703e-05, 1.224231399933134e-08
0, 0, 142, 8.190644439309835e-05, 1.229621348354865e-08
0, 0, 143, 8.223127224482596e-05, 1.234587918825255e-08
0, 0, 144, 8.264955977210775e-05, 1.240793658363572e-08
0, 0, 145, 8.293683640658855e-05, 1.246512265792611e-08
0, 0, 146, 8.339974738191813e-05, 1.253852602625905e-08
0, 0, 147, 8.384479588130489e-05, 1.260222164301474e-08
0, 0, 148, 8.414509647991508e-05, 1.265280273007951e-08
0, 0, 149, 8.453732880298048e-05, 1.271782314634401e-08
0, 0, 150, 8.495725342072546e-05, 1.277716014163074e-08
0, 0, 151, 8.558910485589877e-05, 1.285849152841641e-08
0, 0, 152, 8.616250124759972e-05, 1.293100882444851e-08
0, 0, 153, 8.678487211000174e-05, 1.30154236275415e-08
0, 0, 154, 8.720723417354748e-05, 1.308147389415377e-08
0, 0, 155, 8.777640323387459e-05, 1.316365844036287e-08
0, 0, 156, 8.822724339552224e-05, 1.324582193414952e-08
0, 0, 157, 8.870383317116648e-05, 1.331875977558416e-08
0, 0, 158, 8.913897909224033e-05, 1.339035322279305e-08
0, 0, 159, 8.979630365502089e-05, 1.348075511027606e-08
0, 0, 160, 9.038519783644006e-05, 1.356359563706021e-08
0, 0, 161, 9.07976136659272e-05, 1.364161919209387e-08
0, 0, 162, 9.133276034845039e-05, 1.372619080226529e-08
0, 0, 163, 9.192404831992462e-05, 1.3815267823862e-08
0, 0, 164, 9.263963875127956e-05, 1.392731152012248e-08
0, 0, 165, 9.315929492004216e-05, 1.401318319960066e-08
0, 0, 166, 9.376736124977469e-05, 1.411173953024634e-08
0, 0, 167, 9.425642929272726e-05, 1.419510184406957e-08
0, 0, 168, 9.512696851743385e-05, 1.431577842083135e-08
0, 0, 169, 9.575959120411426e-05, 1.441180773800353e-08
0, 0, 170, 9.646354737924412e-05, 1.452095746993134e-08
0, 0, 171, 9.708681318443269e-05, 1.462544725866971e-08
0, 0, 172, 9.788390889298171e-05, 1.474268254087925e-08
0, 0, 173, 9.89262989605777e-05, 1.488907281719702e-08
0, 0, 174, 9.957967995433137e-05, 1.499286375991762e-08
0, 0, 175, 0.0001002584904199466, 1.511234474432829e-08
0, 0, 176, 0.0001011581480270252, 1.525585979414843e-08
0, 0, 177, 0.0001018351831589825, 1.537612501533249e-08
0, 0, 178, 0.0001027180114760995, 1.551047266962934e-08
0, 0, 179, 0.0001036655667121522, 1.565871907053499e-08
0, 0, 180, 0.0001046295583364554, 1.581141170568761e-08
0, 0, 181, 0.0001055274697137065, 1.595685216616229e-08
0, 0, 182, 0.0001065706383087672, 1.611797521174823e-08
0, 0, 183, 0.0001076436383300461, 1.629528097151582e-08
0, 0, 184, 0.0001086706470232457, 1.646049140671514e-08
0, 0, 185, 0.0001097911226679571, 1.66328332666014e-08
0, 0, 186, 0.000110902197775431, 1.681401041236507e-08
0, 0, 187, 0.0001121898312703706, 1.701434491784696e-08
0, 0, 188, 0.0001133207842940465, 1.720238363990414e-08
0, 0, 189, 0.000114719572593458, 1.742925783021414e-08
0, 0, 190, 0.0001160105093731545, 1.763384911684379e-08
0, 0, 191, 0.0001174923818325624, 1.786876798077054e-08
0, 0, 192, 0.0001190036637126468, 1.811000898940165e-08
0, 0, 193, 0.000120490301924292, 1.836533081349138e-08
0, 0, 194, 0.0001221241691382602, 1.863054409486257e-08
0, 0, 195, 0.0001238997356267646, 1.890929584904139e-08
0, 0, 196, 0.0001259552373085171, 1.924338426822751e-08
0, 0, 197, 0.00012777658412233, 1.953193190643844e-08
0, 0, 198, 0.0001300177536904812, 1.988090113733816e-08
0, 0, 199, 0.0001322040479863063, 2.02317677849085e-08
0, 0, 200, 0.0001347025972791016, 2.063438862603729e-08
0, 0, 201, 0.0001373645500279963, 2.103736062464836e-08
0, 0, 202, 0.0001403182686772197, 2.14919067101387e-08
0, 0, 203, 0.0001433429570170119, 2.195819065797726e-08
0, 0, 204, 0.0001466609537601471, 2.247304327305195e-08
0, 0, 205, 0.000150387393659912, 2.304226263453039e-08
0, 0, 206, 0.0001542350073577836, 2.365699677248735e-08
0, 0, 207, 0.0001587454025866464, 2.434656970497007e-08
0, 0, 208, 0.0001633216452319175, 2.506268322166833e-08
0, 0, 209, 0.0001687442418187857, 2.590959840027048e-08
0, 0, 210, 0.0001750611700117588, 2.686620665724866e-08
0, 0, 211, 0.0001819980680011213, 2.79327041952092e-08
0, 0, 212, 0.0001899384951684624, 2.915171384122458e-08
0, 0, 213, 0.000199537884327583, 3.06104912178637e-08
0, 0, 214, 0.0002107976470142603, 3.230940234238437e-08
0, 0, 215, 0.0002248430682811886, 3.442109457721986e-08
0, 0, 216, 0.0002416438946966082, 3.699561798429594e-08
0, 0, 217, 0.0002636878634802997, 4.042280573441917e-08
0, 0, 218, 0.0002946646709460765, 4.52994518081648e-08
0, 0, 219, 0.0003438237763475627, 5.325714784942282e-08
0, 0, 220, 0.0004439236363396049, 7.095300685047502e-08
0, 0, 221, 0.0005987320910207927, 9.90980000995108e-08
0, 0, 222, 0.0003534513525664806, 8.210658327935886e-08
0, 0, 223, 3.979702887590975e-05, 2.696095082063711e-08
0, 0, 224, 3.943058004551858e-07, 1.992946237139101e-09
0, 0, 225, 9.970641673406888e-11, 5.747645384306718e-13
0, 0, 226, 2.276724642147343e-11, 2.256881981239824e-13
0, 0, 227, 1.292484175241526e-10, 7.291057856404663e-13
0, 0, 228, 2.213799421557638e-10, 1.022697554584096e-12
0, 0, 229, 4.878783488315719e-11, 4.877090967177157e-13
0, 0, 230, 9.940300318977968e-12, 9.936856702670314e-14
0, 0, 231, 5.52584930937905e-12, 5.523874745704835e-14
0, 0, 232, 1.623318285348674e-10, 9.284146690043758e-13
0, 0, 233, 3.935650069730734e-11, 3.717794560563724e-13
0, 0, 234, 2.747402999547788e-12, 2.746715271501658e-14
0, 0, 235, 9.370684783682748e-11, 6.447454791470642e-13
0, 0, 236, 8.395228414358191e-13, 8.392317645533159e-15
0, 0, 237, 2.809716001528351e-11, 2.722106831777315e-13
0, 0, 238, 0, 0
0, 0, 239, 2.889886073498271e-11, 2.889012039044025e-13
0, 0, 240, 1.813861734423217e-11, 1.813232772763318e-13
0, 0, 241, 0, 0
0, 0, 242, 2.786013878364885e-13, 2.785016634210457e-15
0, 0, 243, 0, 0
0, 0, 244, 0, 0
0, 0, 245, 4.114059440341045e-11, 4.112586359257237e-13
0, 0, 246, 3.642081775057093e-11, 3.640818279006606e-13
0, 0, 247, 4.56773438517466e-11, 4.566160645676997e-13
0, 0, 248, 0, 0
0, 0, 249, 1.146458102063708e-11, 1.146060705538657e-13
0, 0, 250, 1.291761662913782e-11, 9.35903640427213e-14
0, 0, 251, 2.866365781881153e-12, 2.865388854627975e-14
0, 0, 252, 3.293549460936518e-12, 2.33020836076371e-14
0, 0, 253, 0, 0
0, 0, 254, 0, 0
0, 0, 255, 0, 0
0, 0, 256, 2.435029435032821e-11, 2.434179642571827e-13
0, 0, 257, 0, 0
0, 0, 258, 7.674970901871969e-12, 5.444475255167435e-14
0, 0, 259, 7.379066108148535e-12, 7.376521537761547e-14
0, 0, 260, 0, 0
0, 0, 261, 0, 0
0, 0, 262, 3.484926583419146e-11, 3.48371785919326e-13
0, 0, 263, 0, 0
0, 0, 264, 3.141582263430087e-12, 3.140457054340343e-14
0, 0, 265, 1.176149455606179e-12, 1.175741479601186e-14
0, 0, 266, 0, 0
0, 0, 267, 0, 0
0, 0, 268, 2.878560410868314e-11, 2.155744160570195e-13
0, 0, 269, 6.496012928958184e-12, 6.493760599720596e-14
0, 0, 270, 5.722778587818889e-12, 5.720795321968312e-14
0, 0, 271, 4.133501180225707e-11, 3.456252325129264e-13
0, 0, 272, 0, 0
0, 0, 273, 0, 0
0, 0, 274, 0, 0
0, 0, 275, 0, 0
0, 0, 276, 0, 0
0, 0, 277, 0, 0
0, 0, 278, 0, 0
0, 0, 279, 0, 0
0, 0, 280, 1.434728117560846e-11, 1.434241773151311e-13
0, 0, 281, 0, 0
0, 0, 282, 0, 0
0, 0, 283, 0, 0
0, 0, 284, 0, 0
0, 0, 285, 0, 0
0, 0, 286, 0, 0
0, 0, 287, 5.607515840555521e-11, 5.605507352486308e-13
0, 0, 288, 0, 0
0, 0, 289, 0, 0
0, 0, 290, 0, 0
0, 0, 291, 0, 0
0, 0, 292, 0, 0
0, 0, 293, 0, 0
0, 0, 294, 0, 0
0, 0, 295, 0, 0
0, 0, 296, 0, 0
0, 0, 297, 0, 0
0, 0, 298, 0, 0
0, 0, 299, 0, 0
0, 0, 300, 0, 0
0, 0, 301, 0, 0
0, 0, 302, 0, 0
0, 0, 303, 0, 0
0, 0, 304, 0, 0
0, 0, 305, 0, 0
0, 0, 306, 0, 0
0, 0, 307, 0, 0
0, 0, 308, 0, 0
0, 0, 309, 0, 0
0, 0, 310, 0, 0
0, 0, 311, 0, 0
0, 0, 312, 0, 0
0, 0, 313, 0, 0
0, 0, 314, 0, 0
0, 0, 315, 0, 0
0, 0, 316, 0, 0
0, 0, 317, 0, 0
0, 0, 318, 0, 0
0, 0, 319, 0, 0
0, 0, 320, 0, 0
0, 0, 321, 0, 0
0, 0, 322, 0, 0
0, 0, 323, 0, 0
0, 0, 324, 0, 0
0, 0, 325, 6.730538869292868e-12, 6.728205096503806e-14
0, 0, 326, 0, 0
0, 0, 327, 0, 0
0, 0, 328, 0, 0
0, 0, 329, 0, 0
0, 0, 330, 1.453554897973275e-11, 1.453049304386314e-13
0, 0, 331, 0, 0
0, 0, 332, 0, 0
0, 0, 333, 0, 0
0, 0, 334, 4.051461423293379e-12, 4.050056377310669e-14
0, 0, 335, 0, 0
0, 0, 336, 0, 0
0, 0, 337, 0, 0
0, 0, 338, 0, 0
0, 0, 339, 0, 0
0, 0, 340, 0, 0
0, 0, 341, 0, 0
0, 0, 342, 0, 0
0, 0, 343, 0, 0
0, 0, 344, 0, 0
0, 0, 345, 0, 0
0, 0, 346, 0, 0
0, 0, 347, 0, 0
0, 0, 348, 0, 0
0, 0, 349, 0, 0
