# TOPAS Version: 3.9
# Parameter File: carbone_220MeV_v2.txt
# Results for scorer: DoseAtPhantom
# Scored in component: Phantom
# X in 1 bin  of 1 cm
# Y in 1 bin  of 1 cm
# Z in 350 bins of 0.1 cm
# DoseToMedium ( Gy ) : Sum   Standard_Deviation   
0, 0, 0, 7.291779911611229e-05, 1.148473589562718e-08
0, 0, 1, 7.423515489790589e-05, 1.144199532461085e-08
0, 0, 2, 7.45000725146383e-05, 1.194369439451007e-08
0, 0, 3, 7.437722524628043e-05, 1.142292557044758e-08
0, 0, 4, 7.471032586181536e-05, 1.16322941964974e-08
0, 0, 5, 7.465056842193007e-05, 1.140216759346601e-08
0, 0, 6, 7.456042658304796e-05, 1.140826956743304e-08
0, 0, 7, 7.535568147432059e-05, 1.201780970482763e-08
0, 0, 8, 7.487621769541875e-05, 1.149002898204953e-08
0, 0, 9, 7.50807230360806e-05, 1.163584536309425e-08
0, 0, 10, 7.60218026698567e-05, 1.223089762428078e-08
0, 0, 11, 7.569591252831742e-05, 1.232194857327612e-08
0, 0, 12, 7.590017048642039e-05, 1.207632776399033e-08
0, 0, 13, 7.535582699347287e-05, 1.158041215326454e-08
0, 0, 14, 7.543148240074515e-05, 1.168313515937263e-08
0, 0, 15, 7.521087536588311e-05, 1.139479561060137e-08
0, 0, 16, 7.567735156044364e-05, 1.176690756837001e-08
0, 0, 17, 7.597783405799419e-05, 1.193049140674164e-08
0, 0, 18, 7.588649168610573e-05, 1.18376680633765e-08
0, 0, 19, 7.588284643134102e-05, 1.169690338336823e-08
0, 0, 20, 7.611387263750657e-05, 1.176647623092605e-08
0, 0, 21, 7.681357237743214e-05, 1.210223702104777e-08
0, 0, 22, 7.669565820833668e-05, 1.203480082434789e-08
0, 0, 23, 7.653251668671146e-05, 1.192757273049987e-08
0, 0, 24, 7.655063382117078e-05, 1.178182830100988e-08
0, 0, 25, 7.761352753732353e-05, 1.245311502181275e-08
0, 0, 26, 7.731078221695498e-05, 1.238811559973155e-08
0, 0, 27, 7.721028669038787e-05, 1.204166905172153e-08
0, 0, 28, 7.785961497575045e-05, 1.260210439779942e-08
0, 0, 29, 7.778065628372133e-05, 1.22989245563079e-08
0, 0, 30, 7.840883336029947e-05, 1.276932192219984e-08
0, 0, 31, 7.842752529541031e-05, 1.256049155423763e-08
0, 0, 32, 7.836915028747171e-05, 1.244512976707303e-08
0, 0, 33, 7.84271614975296e-05, 1.273889601883989e-08
0, 0, 34, 7.867321255616844e-05, 1.265437451752699e-08
0, 0, 35, 7.838346209609881e-05, 1.25279400599016e-08
0, 0, 36, 7.835639553377405e-05, 1.237144846862384e-08
0, 0, 37, 7.842000923119485e-05, 1.232831465030426e-08
0, 0, 38, 7.901334902271628e-05, 1.260195142166288e-08
0, 0, 39, 7.987863500602543e-05, 1.320767725403457e-08
0, 0, 40, 7.932949665701017e-05, 1.259142740821202e-08
0, 0, 41, 7.898110197857022e-05, 1.241791769393012e-08
0, 0, 42, 8.060938853304833e-05, 1.325884706829714e-08
0, 0, 43, 8.003474795259535e-05, 1.286858355947591e-08
0, 0, 44, 8.016808715183288e-05, 1.286531669467244e-08
0, 0, 45, 8.072447235463187e-05, 1.310120940545976e-08
0, 0, 46, 8.068214810919017e-05, 1.289592743734491e-08
0, 0, 47, 8.1115540524479e-05, 1.307304985569841e-08
0, 0, 48, 8.180538861779496e-05, 1.332916636913463e-08
0, 0, 49, 8.135483221849427e-05, 1.306760974747275e-08
0, 0, 50, 8.187647472368553e-05, 1.326864781375666e-08
0, 0, 51, 8.25887982500717e-05, 1.366509662998967e-08
0, 0, 52, 8.241029718192294e-05, 1.325671389184059e-08
0, 0, 53, 8.324798545800149e-05, 1.375786213253559e-08
0, 0, 54, 8.322964276885614e-05, 1.339509010181933e-08
0, 0, 55, 8.357776096090674e-05, 1.370641516409541e-08
0, 0, 56, 8.384057582588866e-05, 1.366523078202254e-08
0, 0, 57, 8.398247882723808e-05, 1.356022373519057e-08
0, 0, 58, 8.433841139776632e-05, 1.373473681464928e-08
0, 0, 59, 8.515162335243076e-05, 1.398643640987462e-08
0, 0, 60, 8.542177965864539e-05, 1.412544590267476e-08
0, 0, 61, 8.535767119610682e-05, 1.403967363940002e-08
0, 0, 62, 8.604386675870046e-05, 1.428241490947498e-08
0, 0, 63, 8.651228563394397e-05, 1.430465071766724e-08
0, 0, 64, 8.701890328666195e-05, 1.453571747406929e-08
0, 0, 65, 8.717716264072806e-05, 1.437648806472727e-08
0, 0, 66, 8.785544196143746e-05, 1.458479089295649e-08
0, 0, 67, 8.816655463306233e-05, 1.46622363367672e-08
0, 0, 68, 8.972393698059022e-05, 1.527939928042296e-08
0, 0, 69, 9.020036668516695e-05, 1.511947500942403e-08
0, 0, 70, 9.094773849938065e-05, 1.539609306106953e-08
0, 0, 71, 9.104008495341986e-05, 1.512738215621752e-08
0, 0, 72, 9.199218038702384e-05, 1.562345502661531e-08
0, 0, 73, 9.251524897990748e-05, 1.595208973421853e-08
0, 0, 74, 9.361313277622685e-05, 1.612946302140164e-08
0, 0, 75, 9.352781489724293e-05, 1.592386217828704e-08
0, 0, 76, 9.452116501051933e-05, 1.608978665718428e-08
0, 0, 77, 9.589368710294366e-05, 1.648938667750386e-08
0, 0, 78, 9.605056402506307e-05, 1.658474556948585e-08
0, 0, 79, 9.66353909461759e-05, 1.653690478118979e-08
0, 0, 80, 9.810466144699603e-05, 1.714420440840616e-08
0, 0, 81, 9.882305312203243e-05, 1.689490323592748e-08
0, 0, 82, 0.000100079836556688, 1.732556787609734e-08
0, 0, 83, 0.0001008690742310137, 1.737244710651967e-08
0, 0, 84, 0.000102458921901416, 1.777945478205043e-08
0, 0, 85, 0.0001040706411004066, 1.844443331503743e-08
0, 0, 86, 0.0001046809411491267, 1.83596854949736e-08
0, 0, 87, 0.0001062219962477684, 1.877419542764295e-08
0, 0, 88, 0.0001078505520126782, 1.904697099116271e-08
0, 0, 89, 0.0001094209728762507, 1.940951210121658e-08
0, 0, 90, 0.0001105104383896105, 1.938066398559513e-08
0, 0, 91, 0.0001128345975303091, 2.009480721484795e-08
0, 0, 92, 0.0001152538534370251, 2.069910560197175e-08
0, 0, 93, 0.0001175743236672133, 2.118285765606758e-08
0, 0, 94, 0.0001204296277137473, 2.180349646521238e-08
0, 0, 95, 0.0001219715340994298, 2.176602310293441e-08
0, 0, 96, 0.0001250980858458206, 2.253712769744134e-08
0, 0, 97, 0.0001294897956540808, 2.367750269128916e-08
0, 0, 98, 0.0001337733556283638, 2.478194949218623e-08
0, 0, 99, 0.0001369108795188367, 2.532268809862853e-08
0, 0, 100, 0.0001425139489583671, 2.712891920698871e-08
0, 0, 101, 0.0001476744510000572, 2.814686210363418e-08
0, 0, 102, 0.0001547149440739304, 2.994260676258964e-08
0, 0, 103, 0.0001599520910531282, 3.086109471396294e-08
0, 0, 104, 0.0001691898796707392, 3.333760918474169e-08
0, 0, 105, 0.0001813209819374606, 3.611860598341054e-08
0, 0, 106, 0.0001925528486026451, 3.79540645953186e-08
0, 0, 107, 0.0002138185809599236, 4.24897275542134e-08
0, 0, 108, 0.0002462083357386291, 4.944404419269341e-08
0, 0, 109, 0.0003252850438002497, 6.83750118951931e-08
0, 0, 110, 0.0004001206834800541, 8.870306928300156e-08
0, 0, 111, 4.254217492416501e-05, 2.097131892559835e-08
0, 0, 112, 1.793938827177044e-05, 9.505634477366448e-09
0, 0, 113, 1.785331369319465e-05, 1.00667524503884e-08
0, 0, 114, 1.674995473877061e-05, 9.39937776492444e-09
0, 0, 115, 1.664887167862616e-05, 9.926695590577611e-09
0, 0, 116, 1.5751667888253e-05, 9.663423081896801e-09
0, 0, 117, 1.443401197320782e-05, 8.769683306829202e-09
0, 0, 118, 1.329482256551273e-05, 8.270317226833631e-09
0, 0, 119, 1.200040696858196e-05, 7.331515321706835e-09
0, 0, 120, 1.108234937419184e-05, 6.759107525581464e-09
0, 0, 121, 1.169832376035629e-05, 7.798972167760681e-09
0, 0, 122, 1.115154100261861e-05, 7.4706988136753e-09
0, 0, 123, 1.009814695862588e-05, 6.508250202182131e-09
0, 0, 124, 1.024319954012753e-05, 7.096431481375649e-09
0, 0, 125, 1.023698769131443e-05, 7.723903383024083e-09
0, 0, 126, 9.164538823824842e-06, 6.902162186201028e-09
0, 0, 127, 8.559542038710788e-06, 6.580438368341566e-09
0, 0, 128, 7.700462447246537e-06, 5.473196618302935e-09
0, 0, 129, 7.044287031021668e-06, 5.175904119548519e-09
0, 0, 130, 7.055946753098397e-06, 5.411152170210803e-09
0, 0, 131, 7.230255505419336e-06, 6.062285244934791e-09
0, 0, 132, 6.505906185338972e-06, 5.169432998707141e-09
0, 0, 133, 5.909412266191794e-06, 4.517929416894931e-09
0, 0, 134, 5.979247816867428e-06, 4.781441041324224e-09
0, 0, 135, 5.118440185469808e-06, 3.961474789378585e-09
0, 0, 136, 5.137198968441226e-06, 4.636178278187083e-09
0, 0, 137, 4.862202331423759e-06, 4.208355216366946e-09
0, 0, 138, 5.042478733230382e-06, 4.787753037340115e-09
0, 0, 139, 4.748358151118737e-06, 4.557159675591274e-09
0, 0, 140, 4.195781457383418e-06, 3.621642164278165e-09
0, 0, 141, 4.152870133111719e-06, 3.82786366393597e-09
0, 0, 142, 4.190610070509138e-06, 4.195749127792844e-09
0, 0, 143, 4.035030087834457e-06, 3.971721694045109e-09
0, 0, 144, 3.43671331393125e-06, 2.777786019273958e-09
0, 0, 145, 3.319361439935165e-06, 2.573761384496835e-09
0, 0, 146, 3.383979901627754e-06, 2.861545183626525e-09
0, 0, 147, 3.220571670681238e-06, 2.978948369431117e-09
0, 0, 148, 2.942807441286277e-06, 2.391949150860097e-09
0, 0, 149, 2.922124167525908e-06, 2.293496573341785e-09
0, 0, 150, 2.967000000353437e-06, 2.379689260559164e-09
0, 0, 151, 3.093904524575919e-06, 2.647758361182677e-09
0, 0, 152, 3.023131966983783e-06, 2.634638751170564e-09
0, 0, 153, 3.142078639939427e-06, 2.986422045727349e-09
0, 0, 154, 2.888798462663544e-06, 2.806929460639341e-09
0, 0, 155, 2.859423830159358e-06, 2.798741357819308e-09
0, 0, 156, 2.603790107968962e-06, 2.286224828485979e-09
0, 0, 157, 2.667970875336323e-06, 2.388206528859327e-09
0, 0, 158, 2.707748990360415e-06, 2.618656215830684e-09
0, 0, 159, 2.424072818030254e-06, 2.397548899467089e-09
0, 0, 160, 2.208679916293477e-06, 2.068291872735444e-09
0, 0, 161, 2.121585112035973e-06, 1.972723334338166e-09
0, 0, 162, 2.141250661225058e-06, 2.058019112397563e-09
0, 0, 163, 2.137028559445753e-06, 2.095533141062944e-09
0, 0, 164, 2.117214080499252e-06, 2.128137982532045e-09
0, 0, 165, 2.121901161444839e-06, 2.132396325702301e-09
0, 0, 166, 2.21465006688959e-06, 2.525433421712808e-09
0, 0, 167, 1.773450662767573e-06, 1.511395465967438e-09
0, 0, 168, 1.869963966782962e-06, 1.771717810945022e-09
0, 0, 169, 2.062255134660518e-06, 2.277612073289386e-09
0, 0, 170, 2.035187662841054e-06, 2.283322172464691e-09
0, 0, 171, 1.721522494335659e-06, 1.592217160713226e-09
0, 0, 172, 1.695802893664222e-06, 1.691662946871827e-09
0, 0, 173, 1.649199703024351e-06, 1.635323173845655e-09
0, 0, 174, 1.635075932426844e-06, 1.675952503449077e-09
0, 0, 175, 1.606898877071217e-06, 1.611503301798101e-09
0, 0, 176, 1.716152041808527e-06, 2.142431485108574e-09
0, 0, 177, 1.525564584881067e-06, 1.802533177755378e-09
0, 0, 178, 1.41167424771993e-06, 1.600514921611899e-09
0, 0, 179, 1.333627210442501e-06, 1.409669896715103e-09
0, 0, 180, 1.457937514715013e-06, 1.762495894769253e-09
0, 0, 181, 1.45279568641854e-06, 2.097364825444157e-09
0, 0, 182, 1.305970613429963e-06, 1.563687174368141e-09
0, 0, 183, 1.33649984945805e-06, 1.757306703104246e-09
0, 0, 184, 1.250287709808617e-06, 1.416988861470384e-09
0, 0, 185, 1.144304746958369e-06, 1.213176203290753e-09
0, 0, 186, 1.110520429392636e-06, 1.346926094004837e-09
0, 0, 187, 1.043417000801128e-06, 1.07866032427591e-09
0, 0, 188, 1.110802600123861e-06, 1.311291452962599e-09
0, 0, 189, 1.098201664717635e-06, 1.329746894059614e-09
0, 0, 190, 1.031339479595772e-06, 1.10436227630942e-09
0, 0, 191, 1.147359171227436e-06, 1.537550014193584e-09
0, 0, 192, 1.1742470178433e-06, 1.462530540939062e-09
0, 0, 193, 1.273818270419724e-06, 1.833817122609103e-09
0, 0, 194, 1.063334138962091e-06, 1.404074056164942e-09
0, 0, 195, 1.094226377063023e-06, 1.462732277916284e-09
0, 0, 196, 1.086249426407448e-06, 1.49807209097204e-09
0, 0, 197, 1.043132556333148e-06, 1.396438051030597e-09
0, 0, 198, 1.113143412112549e-06, 1.725441341721748e-09
0, 0, 199, 1.080506422113103e-06, 1.715802855195423e-09
0, 0, 200, 9.773273177415831e-07, 1.457793651788082e-09
0, 0, 201, 1.062923615791078e-06, 1.851842612196448e-09
0, 0, 202, 1.064364141711849e-06, 1.882921990018208e-09
0, 0, 203, 9.000460181596281e-07, 1.493460273404896e-09
0, 0, 204, 8.692857136338716e-07, 1.557220940570532e-09
0, 0, 205, 8.086781235761009e-07, 1.503222252011549e-09
0, 0, 206, 6.672988206446462e-07, 1.007794454892403e-09
0, 0, 207, 6.329565849227947e-07, 8.331027593494871e-10
0, 0, 208, 6.451924150496779e-07, 8.946100494122543e-10
0, 0, 209, 6.888328698551049e-07, 1.030490947512878e-09
0, 0, 210, 7.613288062202628e-07, 1.410708107227281e-09
0, 0, 211, 7.030534447949321e-07, 1.153258325186154e-09
0, 0, 212, 7.176417966547888e-07, 1.346153904391374e-09
0, 0, 213, 6.259519409468339e-07, 9.688166438809175e-10
0, 0, 214, 7.92178241226793e-07, 1.654707220921345e-09
0, 0, 215, 8.099767114799761e-07, 1.738987361930073e-09
0, 0, 216, 5.109411631565308e-07, 8.143655823099161e-10
0, 0, 217, 5.48683715351217e-07, 1.011069326418672e-09
0, 0, 218, 5.493457706506888e-07, 9.798439319065385e-10
0, 0, 219, 5.299794452184869e-07, 9.879482802298748e-10
0, 0, 220, 4.729153602056613e-07, 7.793527493916976e-10
0, 0, 221, 5.755504730586836e-07, 1.190754645962092e-09
0, 0, 222, 5.409688128565904e-07, 1.153723882591444e-09
0, 0, 223, 4.694836945873249e-07, 8.697223878324409e-10
0, 0, 224, 4.963263791069039e-07, 1.186970840998992e-09
0, 0, 225, 4.536413769073988e-07, 1.045482864907854e-09
0, 0, 226, 3.750476764707855e-07, 5.946568311478611e-10
0, 0, 227, 4.008855114534526e-07, 7.141755877385295e-10
0, 0, 228, 4.698062241459411e-07, 9.816838935479046e-10
0, 0, 229, 4.241250053382828e-07, 8.577958066449328e-10
0, 0, 230, 4.145144600897765e-07, 7.529761405112433e-10
0, 0, 231, 4.543859120076377e-07, 1.120833960736076e-09
0, 0, 232, 4.410314602409926e-07, 1.035573407476531e-09
0, 0, 233, 3.994891244474275e-07, 7.785317432674407e-10
0, 0, 234, 3.420030623146886e-07, 6.059530224283185e-10
0, 0, 235, 3.85246806899886e-07, 7.406080861460899e-10
0, 0, 236, 3.50592188169685e-07, 7.603179791425668e-10
0, 0, 237, 3.248669315780717e-07, 6.680494550218317e-10
0, 0, 238, 2.972678032620024e-07, 5.534316260001155e-10
0, 0, 239, 3.299610398244113e-07, 6.68924642261363e-10
0, 0, 240, 3.935616064154601e-07, 1.079909246515047e-09
0, 0, 241, 3.287887864189543e-07, 7.580091834470088e-10
0, 0, 242, 4.566189772958751e-07, 1.469952465594491e-09
0, 0, 243, 2.740480056218075e-07, 6.614981003331154e-10
0, 0, 244, 2.27365646310318e-07, 4.616512890221157e-10
0, 0, 245, 2.009235799960152e-07, 3.575672885834747e-10
0, 0, 246, 1.9584871324696e-07, 3.552374934841702e-10
0, 0, 247, 2.159981988825166e-07, 3.993151363977926e-10
0, 0, 248, 2.116721447009695e-07, 4.123440227594269e-10
0, 0, 249, 1.857372637914523e-07, 4.015416803319014e-10
0, 0, 250, 1.8910100152425e-07, 4.587668657347053e-10
0, 0, 251, 2.629299444834032e-07, 1.036147058047161e-09
0, 0, 252, 1.754767851025463e-07, 3.366621863116587e-10
0, 0, 253, 1.570802083961098e-07, 3.231733785656015e-10
0, 0, 254, 1.663659077166812e-07, 3.483681575106049e-10
0, 0, 255, 1.765595385450069e-07, 3.809027484134956e-10
0, 0, 256, 1.891479257665196e-07, 4.425213951275217e-10
0, 0, 257, 2.256531104194437e-07, 6.180546653675094e-10
0, 0, 258, 2.454286516240245e-07, 7.815728002582927e-10
0, 0, 259, 1.695746902896644e-07, 4.265550748583094e-10
0, 0, 260, 2.0607581063814e-07, 7.470983132135175e-10
0, 0, 261, 1.629520909318671e-07, 4.444748101307893e-10
0, 0, 262, 1.541469885069091e-07, 4.012038226288025e-10
0, 0, 263, 1.290328981440325e-07, 2.814068433327276e-10
0, 0, 264, 1.322381280033369e-07, 2.883687969137813e-10
0, 0, 265, 1.403247296138943e-07, 3.094674552116041e-10
0, 0, 266, 1.362022743478519e-07, 3.113486080323561e-10
0, 0, 267, 1.402406297756897e-07, 3.384171612437909e-10
0, 0, 268, 1.493127825824558e-07, 3.694066429517142e-10
0, 0, 269, 1.597303480593837e-07, 4.319588618100399e-10
0, 0, 270, 1.946231122929021e-07, 6.86798971766489e-10
0, 0, 271, 1.833944054396852e-07, 5.546694902467084e-10
0, 0, 272, 1.370332824990328e-07, 3.444915248387133e-10
0, 0, 273, 1.38733895482801e-07, 3.359930909970589e-10
0, 0, 274, 1.759634642439778e-07, 4.88121702841987e-10
0, 0, 275, 1.652500714044436e-07, 5.320280585998108e-10
0, 0, 276, 2.004339449968029e-07, 7.881386879650237e-10
0, 0, 277, 1.3187246850066e-07, 3.131407226753806e-10
0, 0, 278, 1.131613203142479e-07, 2.932100663238983e-10
0, 0, 279, 1.201672148454236e-07, 3.294626825127409e-10
0, 0, 280, 1.321957228128667e-07, 4.249072925961942e-10
0, 0, 281, 1.89796381278029e-07, 9.480027073738156e-10
0, 0, 282, 1.040668422547242e-07, 2.235571384650559e-10
0, 0, 283, 1.072357775910859e-07, 2.501920955146414e-10
0, 0, 284, 1.146579151622973e-07, 2.686758978682084e-10
0, 0, 285, 1.00922953549798e-07, 2.517365071809747e-10
0, 0, 286, 1.092383925538343e-07, 2.83823165201611e-10
0, 0, 287, 1.161707174901494e-07, 3.193996290857127e-10
0, 0, 288, 1.236519864278307e-07, 3.892359157859861e-10
0, 0, 289, 1.292269047326045e-07, 5.707930025353796e-10
0, 0, 290, 1.243875544787443e-07, 5.910473661686135e-10
0, 0, 291, 6.774453709113004e-08, 1.507305353200271e-10
0, 0, 292, 6.753366932343852e-08, 1.48548956795642e-10
0, 0, 293, 7.062973850224807e-08, 1.54908632070437e-10
0, 0, 294, 6.949409225853742e-08, 1.526489226532221e-10
0, 0, 295, 6.809812447272634e-08, 1.526781274576047e-10
0, 0, 296, 6.687307774200235e-08, 1.554223015416122e-10
0, 0, 297, 6.91312749268036e-08, 1.584034462177836e-10
0, 0, 298, 8.89723423824762e-08, 2.520307965659929e-10
0, 0, 299, 8.361723047300984e-08, 2.134021404823572e-10
0, 0, 300, 8.272045448620702e-08, 1.932694609108176e-10
0, 0, 301, 8.237533677402098e-08, 1.907558479317919e-10
0, 0, 302, 7.621508757438278e-08, 1.762893480663077e-10
0, 0, 303, 7.040463145813192e-08, 1.653453975048355e-10
0, 0, 304, 8.823015207326534e-08, 2.290519229902598e-10
0, 0, 305, 7.96453107909656e-08, 1.906457517657314e-10
0, 0, 306, 8.232483139636315e-08, 2.055270797709292e-10
0, 0, 307, 9.02252068613052e-08, 2.389422888181975e-10
0, 0, 308, 8.658562933305802e-08, 2.215601050294987e-10
0, 0, 309, 7.186574180195748e-08, 1.777185711786412e-10
0, 0, 310, 7.245703415037497e-08, 1.836052489251898e-10
0, 0, 311, 7.179202299312237e-08, 1.841758986542194e-10
0, 0, 312, 7.725151363047189e-08, 1.926471459096108e-10
0, 0, 313, 7.732994333764509e-08, 1.999618609812041e-10
0, 0, 314, 8.160778008914349e-08, 2.087897743154481e-10
0, 0, 315, 9.00074965670683e-08, 2.31095837812256e-10
0, 0, 316, 9.862603889132515e-08, 2.562547189817829e-10
0, 0, 317, 8.724927624825796e-08, 2.232227819638371e-10
0, 0, 318, 7.994763961960416e-08, 2.083713210745598e-10
0, 0, 319, 8.042697885457528e-08, 2.177227449587008e-10
0, 0, 320, 8.297920572886142e-08, 2.267005279166246e-10
0, 0, 321, 8.754719971193481e-08, 2.344000881171718e-10
0, 0, 322, 8.874381052237368e-08, 2.418534558100915e-10
0, 0, 323, 9.097393416368504e-08, 2.535638156371754e-10
0, 0, 324, 1.158285201086073e-07, 3.405876272612982e-10
0, 0, 325, 9.86267849611977e-08, 2.843401658166188e-10
0, 0, 326, 9.144964963070379e-08, 2.93932683285958e-10
0, 0, 327, 9.316696747418973e-08, 3.163413879227599e-10
0, 0, 328, 1.020486379843533e-07, 3.559154941547102e-10
0, 0, 329, 1.157036493282249e-07, 4.240979535029262e-10
0, 0, 330, 1.386174233175552e-07, 5.587497763202778e-10
0, 0, 331, 1.824808464334637e-07, 8.689550952856715e-10
0, 0, 332, 1.283057287082556e-07, 5.80226946581346e-10
0, 0, 333, 1.79329873617462e-07, 9.292936873962743e-10
0, 0, 334, 1.0607145384256e-07, 5.626941656002099e-10
0, 0, 335, 5.465611607746723e-08, 1.676935119066582e-10
0, 0, 336, 6.320023970829425e-08, 2.284738533299852e-10
0, 0, 337, 5.064049446446006e-08, 1.45740265046024e-10
0, 0, 338, 4.468727965445396e-08, 1.427258933790565e-10
0, 0, 339, 4.32412505801949e-08, 1.494419912014417e-10
0, 0, 340, 4.835890266008391e-08, 1.668322451866959e-10
0, 0, 341, 5.660220381287218e-08, 2.287742379950824e-10
0, 0, 342, 4.162046352007565e-08, 1.588753962480037e-10
0, 0, 343, 4.767368011471262e-08, 1.874315721221529e-10
0, 0, 344, 3.678711735233264e-08, 1.588247685614563e-10
0, 0, 345, 3.621043376256239e-08, 1.638526750822376e-10
0, 0, 346, 3.67146775204219e-08, 1.733782366247221e-10
0, 0, 347, 3.850167829000384e-08, 1.912395143371092e-10
0, 0, 348, 4.614710036321412e-08, 2.254745489190267e-10
0, 0, 349, 5.127835578377926e-08, 2.591398209937137e-10
