# TOPAS Version: 3.9
# Parameter File: proton_122MeV_v4.txt
# Results for scorer: DoseAtPhantom
# Scored in component: Phantom
# X in 1 bin  of 1 cm
# Y in 1 bin  of 1 cm
# Z in 350 bins of 0.1 cm
# DoseToMedium ( Gy ) : Sum   Standard_Deviation   
0, 0, 0, 3.099986133747734e-05, 4.685902281472418e-10
0, 0, 1, 3.14008939312771e-05, 4.748720937041899e-10
0, 0, 2, 3.1530529668089e-05, 4.800474746349678e-10
0, 0, 3, 3.159853804390877e-05, 4.822290515638846e-10
0, 0, 4, 3.184029992553405e-05, 4.972529379306049e-10
0, 0, 5, 3.198357080691494e-05, 4.91898682033211e-10
0, 0, 6, 3.212084266124293e-05, 4.934660326978333e-10
0, 0, 7, 3.221859151381068e-05, 4.921049601705976e-10
0, 0, 8, 3.238531644456089e-05, 4.967693721248449e-10
0, 0, 9, 3.247822314733639e-05, 4.95143696388358e-10
0, 0, 10, 3.264711995143443e-05, 4.975794475745092e-10
0, 0, 11, 3.284095873823389e-05, 5.005290266162909e-10
0, 0, 12, 3.300787284388207e-05, 5.08510337549073e-10
0, 0, 13, 3.305503560113721e-05, 5.028635715529798e-10
0, 0, 14, 3.324943463667296e-05, 5.060154989276822e-10
0, 0, 15, 3.344351716805249e-05, 5.139106202266166e-10
0, 0, 16, 3.354957880219445e-05, 5.164097705921073e-10
0, 0, 17, 3.364939402672462e-05, 5.184899048257826e-10
0, 0, 18, 3.389942139619961e-05, 5.210051147021528e-10
0, 0, 19, 3.39922116836533e-05, 5.250474505237413e-10
0, 0, 20, 3.422945883357897e-05, 5.281578966045199e-10
0, 0, 21, 3.428953641559929e-05, 5.310712378008853e-10
0, 0, 22, 3.450100484769791e-05, 5.414844094384824e-10
0, 0, 23, 3.45756379829254e-05, 5.414976606233549e-10
0, 0, 24, 3.477424979791977e-05, 5.399131976550948e-10
0, 0, 25, 3.487511639832519e-05, 5.3977794605535e-10
0, 0, 26, 3.503072730381973e-05, 5.394096596216621e-10
0, 0, 27, 3.527713488438167e-05, 5.533826555169725e-10
0, 0, 28, 3.543669663486071e-05, 5.51511094807784e-10
0, 0, 29, 3.554379873094149e-05, 5.499689405584625e-10
0, 0, 30, 3.57292519765906e-05, 5.541944821710416e-10
0, 0, 31, 3.581246346584521e-05, 5.502700366936419e-10
0, 0, 32, 3.599702176870778e-05, 5.538622181835688e-10
0, 0, 33, 3.61449237971101e-05, 5.542878663575852e-10
0, 0, 34, 3.635043685790151e-05, 5.685812818162409e-10
0, 0, 35, 3.654411557363346e-05, 5.735609198208714e-10
0, 0, 36, 3.669347643153742e-05, 5.662103787438018e-10
0, 0, 37, 3.693772669066675e-05, 5.763871595139629e-10
0, 0, 38, 3.707939686137252e-05, 5.766294134494907e-10
0, 0, 39, 3.71840396837797e-05, 5.747257609870578e-10
0, 0, 40, 3.749403185793199e-05, 5.839243783859163e-10
0, 0, 41, 3.753736018552445e-05, 5.768952193767641e-10
0, 0, 42, 3.786505840253085e-05, 5.885083627008482e-10
0, 0, 43, 3.803478466579691e-05, 5.93434076014546e-10
0, 0, 44, 3.817221659119241e-05, 5.958808829007951e-10
0, 0, 45, 3.839405326289125e-05, 5.9491793680611e-10
0, 0, 46, 3.857941919704899e-05, 5.964116816941522e-10
0, 0, 47, 3.88323278457392e-05, 6.019016074149444e-10
0, 0, 48, 3.903995093423873e-05, 6.085909492188783e-10
0, 0, 49, 3.927855868823826e-05, 6.158802760338166e-10
0, 0, 50, 3.954840212827548e-05, 6.197305548868239e-10
0, 0, 51, 3.984750946983695e-05, 6.278088987755507e-10
0, 0, 52, 4.000991611974314e-05, 6.267192170750287e-10
0, 0, 53, 4.018234176328406e-05, 6.228042249320425e-10
0, 0, 54, 4.043661465402693e-05, 6.320882774806037e-10
0, 0, 55, 4.071940929861739e-05, 6.406978483298372e-10
0, 0, 56, 4.099435318494216e-05, 6.464930906509712e-10
0, 0, 57, 4.122008613194339e-05, 6.545769739150156e-10
0, 0, 58, 4.144758713664487e-05, 6.564196322352411e-10
0, 0, 59, 4.177387381787412e-05, 6.641038891478147e-10
0, 0, 60, 4.206789890304208e-05, 6.640608984160999e-10
0, 0, 61, 4.232013452565297e-05, 6.66575279023133e-10
0, 0, 62, 4.266060568625107e-05, 6.710483712279079e-10
0, 0, 63, 4.299617285141721e-05, 6.813440949427832e-10
0, 0, 64, 4.335658377385698e-05, 6.941529457779765e-10
0, 0, 65, 4.360185994300991e-05, 6.92066557260791e-10
0, 0, 66, 4.381404505693354e-05, 6.882933892102222e-10
0, 0, 67, 4.426282612257637e-05, 7.003997719488604e-10
0, 0, 68, 4.470159547054209e-05, 7.076121343972153e-10
0, 0, 69, 4.505496326601133e-05, 7.186398717409789e-10
0, 0, 70, 4.543224349617958e-05, 7.227534032167824e-10
0, 0, 71, 4.577578511089087e-05, 7.27325049304458e-10
0, 0, 72, 4.620073741534725e-05, 7.38222994703921e-10
0, 0, 73, 4.670685666496865e-05, 7.542863036818389e-10
0, 0, 74, 4.703785089077428e-05, 7.528476470569717e-10
0, 0, 75, 4.755427653435618e-05, 7.644838847797204e-10
0, 0, 76, 4.797447036253288e-05, 7.727338099987995e-10
0, 0, 77, 4.8416419303976e-05, 7.791752566868798e-10
0, 0, 78, 4.902004366158508e-05, 7.90730212247111e-10
0, 0, 79, 4.961520244251005e-05, 8.042290130086367e-10
0, 0, 80, 5.020202661398798e-05, 8.158552366295486e-10
0, 0, 81, 5.078673711977899e-05, 8.239326172403659e-10
0, 0, 82, 5.150258948560804e-05, 8.432188759413071e-10
0, 0, 83, 5.223442349233665e-05, 8.526629671512454e-10
0, 0, 84, 5.290957051329315e-05, 8.639137292202805e-10
0, 0, 85, 5.363456148188561e-05, 8.752533516446238e-10
0, 0, 86, 5.44794493180234e-05, 8.885996208586493e-10
0, 0, 87, 5.533066359930672e-05, 9.013456468474444e-10
0, 0, 88, 5.627700011245906e-05, 9.184280630726538e-10
0, 0, 89, 5.733763464377262e-05, 9.452279564206607e-10
0, 0, 90, 5.835449337610044e-05, 9.711907825348482e-10
0, 0, 91, 5.939631591900252e-05, 9.844867152449012e-10
0, 0, 92, 6.060297891963273e-05, 1.009082261417405e-09
0, 0, 93, 6.203409429872409e-05, 1.038342486773444e-09
0, 0, 94, 6.352942727971822e-05, 1.073353404534224e-09
0, 0, 95, 6.503621261799708e-05, 1.085065938710376e-09
0, 0, 96, 6.695660704281181e-05, 1.122730626103914e-09
0, 0, 97, 6.915741687407717e-05, 1.173239380148552e-09
0, 0, 98, 7.128343713702634e-05, 1.212884864881678e-09
0, 0, 99, 7.365643250523135e-05, 1.250849954890483e-09
0, 0, 100, 7.669534534215927e-05, 1.307126607121947e-09
0, 0, 101, 8.014290506253019e-05, 1.373028231917431e-09
0, 0, 102, 8.428391447523609e-05, 1.4537959893155e-09
0, 0, 103, 8.939444524003193e-05, 1.555845327796968e-09
0, 0, 104, 9.584060171619058e-05, 1.676106859729676e-09
0, 0, 105, 0.0001046965553541668, 1.859179098857318e-09
0, 0, 106, 0.0001172540651168674, 2.108883957545019e-09
0, 0, 107, 0.0001366682990919799, 2.533693745876329e-09
0, 0, 108, 0.0001607277954462916, 3.068825615761531e-09
0, 0, 109, 0.0001699651038507, 3.48726635891088e-09
0, 0, 110, 0.0001325170887866989, 3.300522315522617e-09
0, 0, 111, 6.65471307002008e-05, 2.448095846101466e-09
0, 0, 112, 1.925290416693315e-05, 1.338048796289887e-09
0, 0, 113, 2.669216200956726e-06, 4.781830883699515e-10
0, 0, 114, 2.038393915881898e-07, 1.285242765680508e-10
0, 0, 115, 0, 0
0, 0, 116, 2.522509328153899e-12, 7.976596278075246e-15
0, 0, 117, 4.647097637255904e-11, 1.46948957852714e-13
0, 0, 118, 0, 0
0, 0, 119, 0, 0
0, 0, 120, 1.755480851829694e-12, 5.55112427189851e-15
0, 0, 121, 1.870874765871888e-12, 5.916019038879418e-15
0, 0, 122, 3.427079800499833e-12, 1.083700001679922e-14
0, 0, 123, 0, 0
0, 0, 124, 2.309946071227253e-12, 7.304436013358551e-15
0, 0, 125, 3.048244599443417e-12, 9.639060134706894e-15
0, 0, 126, 0, 0
0, 0, 127, 0, 0
0, 0, 128, 9.585603144568466e-12, 3.031126994064803e-14
0, 0, 129, 0, 0
0, 0, 130, 4.890957777670124e-11, 1.546602180915474e-13
0, 0, 131, 0, 0
0, 0, 132, 0, 0
0, 0, 133, 0, 0
0, 0, 134, 0, 0
0, 0, 135, 0, 0
0, 0, 136, 0, 0
0, 0, 137, 0, 0
0, 0, 138, 0, 0
0, 0, 139, 0, 0
0, 0, 140, 0, 0
0, 0, 141, 0, 0
0, 0, 142, 6.137220722943204e-13, 1.940691204009627e-15
0, 0, 143, 0, 0
0, 0, 144, 0, 0
0, 0, 145, 0, 0
0, 0, 146, 8.168144112474796e-12, 2.582903118311692e-14
0, 0, 147, 0, 0
0, 0, 148, 0, 0
0, 0, 149, 0, 0
0, 0, 150, 0, 0
0, 0, 151, 0, 0
0, 0, 152, 0, 0
0, 0, 153, 0, 0
0, 0, 154, 0, 0
0, 0, 155, 0, 0
0, 0, 156, 0, 0
0, 0, 157, 0, 0
0, 0, 158, 0, 0
0, 0, 159, 0, 0
0, 0, 160, 0, 0
0, 0, 161, 0, 0
0, 0, 162, 0, 0
0, 0, 163, 0, 0
0, 0, 164, 0, 0
0, 0, 165, 0, 0
0, 0, 166, 0, 0
0, 0, 167, 0, 0
0, 0, 168, 0, 0
0, 0, 169, 5.766516777971908e-11, 1.823472040640414e-13
0, 0, 170, 0, 0
0, 0, 171, 1.818771695749621e-11, 5.751258956421843e-14
0, 0, 172, 0, 0
0, 0, 173, 0, 0
0, 0, 174, 0, 0
0, 0, 175, 0, 0
0, 0, 176, 0, 0
0, 0, 177, 0, 0
0, 0, 178, 0, 0
0, 0, 179, 0, 0
0, 0, 180, 0, 0
0, 0, 181, 0, 0
0, 0, 182, 0, 0
0, 0, 183, 0, 0
0, 0, 184, 0, 0
0, 0, 185, 0, 0
0, 0, 186, 0, 0
0, 0, 187, 0, 0
0, 0, 188, 0, 0
0, 0, 189, 0, 0
0, 0, 190, 0, 0
0, 0, 191, 0, 0
0, 0, 192, 0, 0
0, 0, 193, 0, 0
0, 0, 194, 0, 0
0, 0, 195, 0, 0
0, 0, 196, 0, 0
0, 0, 197, 0, 0
0, 0, 198, 0, 0
0, 0, 199, 0, 0
0, 0, 200, 0, 0
0, 0, 201, 0, 0
0, 0, 202, 0, 0
0, 0, 203, 0, 0
0, 0, 204, 0, 0
0, 0, 205, 0, 0
0, 0, 206, 0, 0
0, 0, 207, 0, 0
0, 0, 208, 0, 0
0, 0, 209, 0, 0
0, 0, 210, 0, 0
0, 0, 211, 0, 0
0, 0, 212, 0, 0
0, 0, 213, 0, 0
0, 0, 214, 0, 0
0, 0, 215, 0, 0
0, 0, 216, 0, 0
0, 0, 217, 0, 0
0, 0, 218, 0, 0
0, 0, 219, 0, 0
0, 0, 220, 0, 0
0, 0, 221, 0, 0
0, 0, 222, 0, 0
0, 0, 223, 0, 0
0, 0, 224, 0, 0
0, 0, 225, 0, 0
0, 0, 226, 0, 0
0, 0, 227, 0, 0
0, 0, 228, 0, 0
0, 0, 229, 0, 0
0, 0, 230, 0, 0
0, 0, 231, 1.940902299990555e-12, 6.137458867808504e-15
0, 0, 232, 0, 0
0, 0, 233, 0, 0
0, 0, 234, 0, 0
0, 0, 235, 0, 0
0, 0, 236, 0, 0
0, 0, 237, 0, 0
0, 0, 238, 0, 0
0, 0, 239, 0, 0
0, 0, 240, 0, 0
0, 0, 241, 0, 0
0, 0, 242, 0, 0
0, 0, 243, 0, 0
0, 0, 244, 0, 0
0, 0, 245, 0, 0
0, 0, 246, 0, 0
0, 0, 247, 0, 0
0, 0, 248, 0, 0
0, 0, 249, 0, 0
0, 0, 250, 0, 0
0, 0, 251, 0, 0
0, 0, 252, 0, 0
0, 0, 253, 0, 0
0, 0, 254, 0, 0
0, 0, 255, 0, 0
0, 0, 256, 0, 0
0, 0, 257, 0, 0
0, 0, 258, 0, 0
0, 0, 259, 0, 0
0, 0, 260, 0, 0
0, 0, 261, 0, 0
0, 0, 262, 0, 0
0, 0, 263, 0, 0
0, 0, 264, 0, 0
0, 0, 265, 0, 0
0, 0, 266, 0, 0
0, 0, 267, 0, 0
0, 0, 268, 0, 0
0, 0, 269, 0, 0
0, 0, 270, 0, 0
0, 0, 271, 0, 0
0, 0, 272, 0, 0
0, 0, 273, 0, 0
0, 0, 274, 0, 0
0, 0, 275, 0, 0
0, 0, 276, 0, 0
0, 0, 277, 0, 0
0, 0, 278, 0, 0
0, 0, 279, 0, 0
0, 0, 280, 0, 0
0, 0, 281, 0, 0
0, 0, 282, 0, 0
0, 0, 283, 0, 0
0, 0, 284, 0, 0
0, 0, 285, 0, 0
0, 0, 286, 0, 0
0, 0, 287, 0, 0
0, 0, 288, 0, 0
0, 0, 289, 0, 0
0, 0, 290, 0, 0
0, 0, 291, 0, 0
0, 0, 292, 0, 0
0, 0, 293, 0, 0
0, 0, 294, 0, 0
0, 0, 295, 0, 0
0, 0, 296, 0, 0
0, 0, 297, 0, 0
0, 0, 298, 0, 0
0, 0, 299, 0, 0
0, 0, 300, 0, 0
0, 0, 301, 0, 0
0, 0, 302, 0, 0
0, 0, 303, 0, 0
0, 0, 304, 0, 0
0, 0, 305, 0, 0
0, 0, 306, 0, 0
0, 0, 307, 0, 0
0, 0, 308, 0, 0
0, 0, 309, 0, 0
0, 0, 310, 0, 0
0, 0, 311, 0, 0
0, 0, 312, 0, 0
0, 0, 313, 0, 0
0, 0, 314, 0, 0
0, 0, 315, 0, 0
0, 0, 316, 0, 0
0, 0, 317, 0, 0
0, 0, 318, 0, 0
0, 0, 319, 0, 0
0, 0, 320, 0, 0
0, 0, 321, 0, 0
0, 0, 322, 0, 0
0, 0, 323, 0, 0
0, 0, 324, 0, 0
0, 0, 325, 0, 0
0, 0, 326, 0, 0
0, 0, 327, 0, 0
0, 0, 328, 0, 0
0, 0, 329, 0, 0
0, 0, 330, 0, 0
0, 0, 331, 0, 0
0, 0, 332, 0, 0
0, 0, 333, 0, 0
0, 0, 334, 0, 0
0, 0, 335, 0, 0
0, 0, 336, 0, 0
0, 0, 337, 0, 0
0, 0, 338, 0, 0
0, 0, 339, 0, 0
0, 0, 340, 0, 0
0, 0, 341, 0, 0
0, 0, 342, 0, 0
0, 0, 343, 0, 0
0, 0, 344, 0, 0
0, 0, 345, 0, 0
0, 0, 346, 0, 0
0, 0, 347, 0, 0
0, 0, 348, 0, 0
0, 0, 349, 0, 0
