# TOPAS Version: 3.9
# Parameter File: proton_235MeVbroad.txt
# Results for scorer: DoseAtPhantom
# Scored in component: Phantom
# X in 1 bin  of 1 cm
# Y in 1 bin  of 1 cm
# Z in 350 bins of 0.1 cm
# DoseToMedium ( Gy ) : Sum   Standard_Deviation   
0, 0, 0, 2.016459745846078e-07, 3.123912499443618e-10
0, 0, 1, 2.06437022143291e-07, 3.198785282165491e-10
0, 0, 2, 2.01811673150587e-07, 3.137063626167858e-10
0, 0, 3, 2.020295397642258e-07, 3.152907741895665e-10
0, 0, 4, 2.086195394213064e-07, 3.261666300096567e-10
0, 0, 5, 2.060065042996939e-07, 3.226230769598835e-10
0, 0, 6, 2.012382083194098e-07, 3.116981681934055e-10
0, 0, 7, 2.049640386303508e-07, 3.191940569690551e-10
0, 0, 8, 2.034229424907608e-07, 3.181563788980575e-10
0, 0, 9, 2.058571482166371e-07, 3.198954559561123e-10
0, 0, 10, 2.056742829381619e-07, 3.188307895149532e-10
0, 0, 11, 2.010989987866196e-07, 3.117560272284534e-10
0, 0, 12, 2.059870354287341e-07, 3.230326830182245e-10
0, 0, 13, 2.058225589962603e-07, 3.166832060177502e-10
0, 0, 14, 2.041480655634587e-07, 3.166105926805234e-10
0, 0, 15, 2.056710997067057e-07, 3.19463559420662e-10
0, 0, 16, 2.109208594447409e-07, 3.259649042204822e-10
0, 0, 17, 2.104906542399476e-07, 3.26560730588518e-10
0, 0, 18, 2.111363386347875e-07, 3.283685343817742e-10
0, 0, 19, 2.066053923499567e-07, 3.19538816160933e-10
0, 0, 20, 2.04749568410989e-07, 3.194176199587286e-10
0, 0, 21, 2.053508012522798e-07, 3.170865599273737e-10
0, 0, 22, 2.098141038686663e-07, 3.262279927650584e-10
0, 0, 23, 2.123200886217091e-07, 3.30846034869148e-10
0, 0, 24, 2.074824294595601e-07, 3.245172839020929e-10
0, 0, 25, 2.123961451161449e-07, 3.296815803250914e-10
0, 0, 26, 2.116153439146728e-07, 3.333078219309158e-10
0, 0, 27, 2.113981594220604e-07, 3.304293738930654e-10
0, 0, 28, 2.037957784750688e-07, 3.179399810572341e-10
0, 0, 29, 2.090659165787656e-07, 3.270504208678456e-10
0, 0, 30, 2.078261189808472e-07, 3.231723936352909e-10
0, 0, 31, 2.134160013156361e-07, 3.369251747684319e-10
0, 0, 32, 2.084454422401905e-07, 3.236570854657134e-10
0, 0, 33, 2.10286003721194e-07, 3.281054342933802e-10
0, 0, 34, 2.09497017067406e-07, 3.269253293896856e-10
0, 0, 35, 2.100675260408025e-07, 3.270037720451276e-10
0, 0, 36, 2.151142410866669e-07, 3.348185376982312e-10
0, 0, 37, 2.125970155475443e-07, 3.318415979630402e-10
0, 0, 38, 2.140715196219389e-07, 3.344706115430585e-10
0, 0, 39, 2.133530472292477e-07, 3.311166305570503e-10
0, 0, 40, 2.143919886066215e-07, 3.353794682394452e-10
0, 0, 41, 2.100778004887616e-07, 3.281162432612362e-10
0, 0, 42, 2.061603083802765e-07, 3.21410052870393e-10
0, 0, 43, 2.098480678114356e-07, 3.267434102455438e-10
0, 0, 44, 2.065903998982321e-07, 3.221323162619394e-10
0, 0, 45, 2.142789270465073e-07, 3.380088900870693e-10
0, 0, 46, 2.118672313144998e-07, 3.338519493393952e-10
0, 0, 47, 2.082997667685049e-07, 3.266998305291721e-10
0, 0, 48, 2.11490842616513e-07, 3.328624406079122e-10
0, 0, 49, 2.133120915459585e-07, 3.37876621387244e-10
0, 0, 50, 2.068544091571312e-07, 3.272619588159e-10
0, 0, 51, 2.081830103861648e-07, 3.309433210427505e-10
0, 0, 52, 2.090001913757078e-07, 3.319532766929331e-10
0, 0, 53, 2.13142513416642e-07, 3.390726501300335e-10
0, 0, 54, 2.070331106551748e-07, 3.274983517622782e-10
0, 0, 55, 2.080825538541831e-07, 3.308960216201744e-10
0, 0, 56, 2.039453050883822e-07, 3.24144679937036e-10
0, 0, 57, 2.092288582389301e-07, 3.31805609146096e-10
0, 0, 58, 2.106665419887577e-07, 3.379560285647269e-10
0, 0, 59, 2.082332883901472e-07, 3.277434307548247e-10
0, 0, 60, 2.126531626345241e-07, 3.416596578037747e-10
0, 0, 61, 2.137339691898887e-07, 3.427450781565519e-10
0, 0, 62, 2.111160029016901e-07, 3.344482826555605e-10
0, 0, 63, 2.152462599269711e-07, 3.405624236522846e-10
0, 0, 64, 2.099239964081789e-07, 3.313105175444965e-10
0, 0, 65, 2.108343579720895e-07, 3.336127586181051e-10
0, 0, 66, 2.158265886009758e-07, 3.425693776451044e-10
0, 0, 67, 2.126430302951121e-07, 3.362910994437399e-10
0, 0, 68, 2.146056061747004e-07, 3.379872995783994e-10
0, 0, 69, 2.133062366738159e-07, 3.36373176828517e-10
0, 0, 70, 2.155744169840546e-07, 3.404308179790842e-10
0, 0, 71, 2.173982380782036e-07, 3.432590572061813e-10
0, 0, 72, 2.189742218661195e-07, 3.495349281905482e-10
0, 0, 73, 2.135851531193111e-07, 3.374605571034519e-10
0, 0, 74, 2.201776538868216e-07, 3.499688477684705e-10
0, 0, 75, 2.212100156384622e-07, 3.505589835984165e-10
0, 0, 76, 2.154640270646269e-07, 3.39099404597163e-10
0, 0, 77, 2.234758653685276e-07, 3.530456015740441e-10
0, 0, 78, 2.187720014035222e-07, 3.455917834318899e-10
0, 0, 79, 2.123157827327304e-07, 3.343390246158708e-10
0, 0, 80, 2.149029256770518e-07, 3.40438063422328e-10
0, 0, 81, 2.14577681845185e-07, 3.406722848693447e-10
0, 0, 82, 2.142924557801962e-07, 3.399932727326134e-10
0, 0, 83, 2.148720028571915e-07, 3.441571541058028e-10
0, 0, 84, 2.134773495754416e-07, 3.41332100002481e-10
0, 0, 85, 2.139720010063684e-07, 3.437668051041339e-10
0, 0, 86, 2.222400610207842e-07, 3.590981462187032e-10
0, 0, 87, 2.185287257816526e-07, 3.507870326111433e-10
0, 0, 88, 2.196880757310282e-07, 3.498084594323398e-10
0, 0, 89, 2.195295394358254e-07, 3.493224327195136e-10
0, 0, 90, 2.196711932356266e-07, 3.500050253230926e-10
0, 0, 91, 2.215831926832834e-07, 3.558890117837153e-10
0, 0, 92, 2.236422460555332e-07, 3.588512400247478e-10
0, 0, 93, 2.185601744031374e-07, 3.525012542422372e-10
0, 0, 94, 2.1986562614984e-07, 3.550396820300592e-10
0, 0, 95, 2.180059652800992e-07, 3.496365385698467e-10
0, 0, 96, 2.180705536147798e-07, 3.506172961973984e-10
0, 0, 97, 2.228255198133411e-07, 3.618575593084804e-10
0, 0, 98, 2.197708397488896e-07, 3.538548612062816e-10
0, 0, 99, 2.137166035254268e-07, 3.432976264842118e-10
0, 0, 100, 2.184837626373337e-07, 3.5206322397427e-10
0, 0, 101, 2.217846457597261e-07, 3.570151568557858e-10
0, 0, 102, 2.218781389728974e-07, 3.605189657911755e-10
0, 0, 103, 2.156864127300651e-07, 3.482493455676509e-10
0, 0, 104, 2.220967729726908e-07, 3.595545205443103e-10
0, 0, 105, 2.242386898387849e-07, 3.640633439300938e-10
0, 0, 106, 2.195008903527196e-07, 3.542240484654224e-10
0, 0, 107, 2.212511986954269e-07, 3.574335575746524e-10
0, 0, 108, 2.23228099116568e-07, 3.606673659552044e-10
0, 0, 109, 2.22378389480582e-07, 3.557204464134507e-10
0, 0, 110, 2.236952383327662e-07, 3.602307078238867e-10
0, 0, 111, 2.233155100839213e-07, 3.586545863249537e-10
0, 0, 112, 2.221527637402687e-07, 3.560896433097394e-10
0, 0, 113, 2.237756575595995e-07, 3.566815662049234e-10
0, 0, 114, 2.242176435629517e-07, 3.58235286742489e-10
0, 0, 115, 2.254299431569962e-07, 3.608535330309744e-10
0, 0, 116, 2.276590151950586e-07, 3.656895883372832e-10
0, 0, 117, 2.252991038176333e-07, 3.657003143775179e-10
0, 0, 118, 2.255405462392446e-07, 3.642744263226836e-10
0, 0, 119, 2.27372382255453e-07, 3.666885357314071e-10
0, 0, 120, 2.24136243787143e-07, 3.622378534474414e-10
0, 0, 121, 2.231015798770386e-07, 3.600636968950091e-10
0, 0, 122, 2.29429474529752e-07, 3.720449006341995e-10
0, 0, 123, 2.289540361744002e-07, 3.681980540135891e-10
0, 0, 124, 2.304911674855248e-07, 3.685650833172835e-10
0, 0, 125, 2.317800777973389e-07, 3.713001326052928e-10
0, 0, 126, 2.306752122649414e-07, 3.695977848188615e-10
0, 0, 127, 2.314139493364564e-07, 3.703081825139439e-10
0, 0, 128, 2.36015964105718e-07, 3.80998083275624e-10
0, 0, 129, 2.31543054951544e-07, 3.711794996227835e-10
0, 0, 130, 2.292578074047924e-07, 3.656516568207618e-10
0, 0, 131, 2.288820866169772e-07, 3.673088620101109e-10
0, 0, 132, 2.332139104055386e-07, 3.783794789618008e-10
0, 0, 133, 2.304045096934715e-07, 3.711225920252158e-10
0, 0, 134, 2.324438241885218e-07, 3.774094804840173e-10
0, 0, 135, 2.314254743396305e-07, 3.774510789082443e-10
0, 0, 136, 2.289568072910697e-07, 3.722717219221129e-10
0, 0, 137, 2.30302191539522e-07, 3.722458027401581e-10
0, 0, 138, 2.275141355312371e-07, 3.674991565298508e-10
0, 0, 139, 2.282810385167977e-07, 3.697783134688564e-10
0, 0, 140, 2.360270485723959e-07, 3.833189121400384e-10
0, 0, 141, 2.358918038680713e-07, 3.827942010977186e-10
0, 0, 142, 2.303026320760182e-07, 3.745091335658288e-10
0, 0, 143, 2.350504644255125e-07, 3.81277020049319e-10
0, 0, 144, 2.321561254348126e-07, 3.777686699954677e-10
0, 0, 145, 2.3204098908991e-07, 3.778449840135256e-10
0, 0, 146, 2.322830709999835e-07, 3.75485165271518e-10
0, 0, 147, 2.325056840390971e-07, 3.792031089084732e-10
0, 0, 148, 2.307761377551287e-07, 3.77529793094938e-10
0, 0, 149, 2.338421154490788e-07, 3.802529277518601e-10
0, 0, 150, 2.387621407251572e-07, 3.931368327241952e-10
0, 0, 151, 2.330632185021386e-07, 3.786495265557167e-10
0, 0, 152, 2.348623695525021e-07, 3.788722388306645e-10
0, 0, 153, 2.404510155429307e-07, 3.944203834358681e-10
0, 0, 154, 2.418466351628012e-07, 3.952206966499867e-10
0, 0, 155, 2.405407713013119e-07, 3.915241455665745e-10
0, 0, 156, 2.381611636792513e-07, 3.847951617038747e-10
0, 0, 157, 2.359259099193878e-07, 3.828642942571936e-10
0, 0, 158, 2.44763185719421e-07, 3.983360623810278e-10
0, 0, 159, 2.370475442603492e-07, 3.856587968323046e-10
0, 0, 160, 2.413304400761263e-07, 3.971336775710545e-10
0, 0, 161, 2.404566714631073e-07, 3.981288617516185e-10
0, 0, 162, 2.315070446456957e-07, 3.776626413212821e-10
0, 0, 163, 2.393533691247285e-07, 3.942565856901357e-10
0, 0, 164, 2.406785881703399e-07, 3.948737282493612e-10
0, 0, 165, 2.376247181246072e-07, 3.89175464128148e-10
0, 0, 166, 2.370272227381065e-07, 3.879195064055168e-10
0, 0, 167, 2.353931165544054e-07, 3.848753179727907e-10
0, 0, 168, 2.424760339181375e-07, 3.99615373927058e-10
0, 0, 169, 2.420563305349788e-07, 3.960464932610685e-10
0, 0, 170, 2.40169924836664e-07, 3.918401126162113e-10
0, 0, 171, 2.417750124550366e-07, 3.993088205092444e-10
0, 0, 172, 2.369037588323408e-07, 3.894685945754919e-10
0, 0, 173, 2.381691075470371e-07, 3.970178929202274e-10
0, 0, 174, 2.422427201054234e-07, 4.045089262337225e-10
0, 0, 175, 2.33246026937195e-07, 3.908327924415827e-10
0, 0, 176, 2.322418168887452e-07, 3.885828180615345e-10
0, 0, 177, 2.3519105241121e-07, 3.947064901214907e-10
0, 0, 178, 2.305968251903323e-07, 3.871559978720785e-10
0, 0, 179, 2.343297325069216e-07, 3.960994402823783e-10
0, 0, 180, 2.329207262619093e-07, 3.959051227803754e-10
0, 0, 181, 2.359956710051847e-07, 4.008850618005408e-10
0, 0, 182, 2.404898111763032e-07, 4.082149642079703e-10
0, 0, 183, 2.342020906098696e-07, 3.93124993357632e-10
0, 0, 184, 2.380516264111066e-07, 4.043616888471633e-10
0, 0, 185, 2.381046613209037e-07, 4.052831127774804e-10
0, 0, 186, 2.3648091485029e-07, 4.02670479102695e-10
0, 0, 187, 2.31496002811582e-07, 3.932319749597994e-10
0, 0, 188, 2.383333139732713e-07, 4.049684208795394e-10
0, 0, 189, 2.425441607556422e-07, 4.117671490768074e-10
0, 0, 190, 2.391476812135807e-07, 4.060415527534555e-10
0, 0, 191, 2.34205614901839e-07, 4.000031372930305e-10
0, 0, 192, 2.346097005556658e-07, 4.026905224070358e-10
0, 0, 193, 2.356685371296408e-07, 4.052703149362307e-10
0, 0, 194, 2.349046468452798e-07, 4.055115844467253e-10
0, 0, 195, 2.402966003955953e-07, 4.139635280198102e-10
0, 0, 196, 2.38701176158429e-07, 4.122093073856334e-10
0, 0, 197, 2.344551148780738e-07, 4.047602164551084e-10
0, 0, 198, 2.378263559421612e-07, 4.09451408251073e-10
0, 0, 199, 2.409988439922017e-07, 4.169851331748449e-10
0, 0, 200, 2.390112001648959e-07, 4.138910439591112e-10
0, 0, 201, 2.406045780389832e-07, 4.178355707880665e-10
0, 0, 202, 2.366342073401029e-07, 4.115557559461287e-10
0, 0, 203, 2.409614978660102e-07, 4.205385971354739e-10
0, 0, 204, 2.401521044248511e-07, 4.160119259339311e-10
0, 0, 205, 2.41763018493657e-07, 4.228783269080381e-10
0, 0, 206, 2.400092000698351e-07, 4.243318185912396e-10
0, 0, 207, 2.358588488959867e-07, 4.155317963061711e-10
0, 0, 208, 2.385548043548624e-07, 4.184338935172667e-10
0, 0, 209, 2.419282054688665e-07, 4.274467514859975e-10
0, 0, 210, 2.387478446053137e-07, 4.208976673312136e-10
0, 0, 211, 2.433980625937693e-07, 4.29787060741515e-10
0, 0, 212, 2.381407853135897e-07, 4.196870844715727e-10
0, 0, 213, 2.44651715775035e-07, 4.3040636996376e-10
0, 0, 214, 2.463053760948242e-07, 4.34006600277016e-10
0, 0, 215, 2.425016987217532e-07, 4.30516166244373e-10
0, 0, 216, 2.495987985184911e-07, 4.421659822719717e-10
0, 0, 217, 2.452406988595612e-07, 4.324273690415482e-10
0, 0, 218, 2.427559024908987e-07, 4.290270937137945e-10
0, 0, 219, 2.486161179149349e-07, 4.395812878538171e-10
0, 0, 220, 2.489209691702854e-07, 4.404886158064549e-10
0, 0, 221, 2.503945495391235e-07, 4.439756736640712e-10
0, 0, 222, 2.49460583745531e-07, 4.467561120885141e-10
0, 0, 223, 2.466520641064562e-07, 4.435711470938469e-10
0, 0, 224, 2.486682149083208e-07, 4.471771502550429e-10
0, 0, 225, 2.48622797016651e-07, 4.491438094105634e-10
0, 0, 226, 2.472984306223225e-07, 4.463219505744593e-10
0, 0, 227, 2.441033188915753e-07, 4.414434199287796e-10
0, 0, 228, 2.408550585641933e-07, 4.366380404226471e-10
0, 0, 229, 2.443592563849961e-07, 4.452727137051212e-10
0, 0, 230, 2.475049427630438e-07, 4.514388982613073e-10
0, 0, 231, 2.45680013222227e-07, 4.462511616602879e-10
0, 0, 232, 2.453232639254566e-07, 4.463827068206594e-10
0, 0, 233, 2.467890851676202e-07, 4.513177399129736e-10
0, 0, 234, 2.495165460913995e-07, 4.543351458144342e-10
0, 0, 235, 2.462867882968567e-07, 4.519599447639534e-10
0, 0, 236, 2.507924818928586e-07, 4.605211692792027e-10
0, 0, 237, 2.491818236194376e-07, 4.586039158992294e-10
0, 0, 238, 2.532003691158025e-07, 4.682295248908573e-10
0, 0, 239, 2.470799813636404e-07, 4.571089261892497e-10
0, 0, 240, 2.496203421742393e-07, 4.622089652995515e-10
0, 0, 241, 2.541526669119776e-07, 4.687502989126903e-10
0, 0, 242, 2.503168730072503e-07, 4.623637302993964e-10
0, 0, 243, 2.566839896189776e-07, 4.730544153978769e-10
0, 0, 244, 2.555147773364297e-07, 4.721321730424749e-10
0, 0, 245, 2.582765716852009e-07, 4.775031250535036e-10
0, 0, 246, 2.567060164437862e-07, 4.770531675869202e-10
0, 0, 247, 2.51026335718052e-07, 4.67558564929316e-10
0, 0, 248, 2.540830905672919e-07, 4.773757374183216e-10
0, 0, 249, 2.471414006777195e-07, 4.671975959251631e-10
0, 0, 250, 2.521313149372872e-07, 4.800231363393781e-10
0, 0, 251, 2.514472612347163e-07, 4.780858710081783e-10
0, 0, 252, 2.580106013283512e-07, 4.916887826615378e-10
0, 0, 253, 2.54866336035775e-07, 4.860288707221772e-10
0, 0, 254, 2.547190831592161e-07, 4.87475227367342e-10
0, 0, 255, 2.526015521198133e-07, 4.831248402787436e-10
0, 0, 256, 2.539856325256551e-07, 4.873971943522547e-10
0, 0, 257, 2.580245279659721e-07, 4.955033323184384e-10
0, 0, 258, 2.657350535173464e-07, 5.086896403013343e-10
0, 0, 259, 2.604181190690724e-07, 4.993922209622709e-10
0, 0, 260, 2.593731096567353e-07, 5.014252517340293e-10
0, 0, 261, 2.571672723661322e-07, 4.987712955074404e-10
0, 0, 262, 2.556605238623888e-07, 4.948853386588433e-10
0, 0, 263, 2.601150015379972e-07, 5.06542322561959e-10
0, 0, 264, 2.62921275862027e-07, 5.122360199939899e-10
0, 0, 265, 2.581060414286185e-07, 5.043572758089942e-10
0, 0, 266, 2.616962717638671e-07, 5.16322415686717e-10
0, 0, 267, 2.618589292069373e-07, 5.16622726509175e-10
0, 0, 268, 2.575349355993239e-07, 5.126400666140839e-10
0, 0, 269, 2.592746568552684e-07, 5.208822410506836e-10
0, 0, 270, 2.575415862793307e-07, 5.183112670230435e-10
0, 0, 271, 2.63188127291869e-07, 5.281218371415582e-10
0, 0, 272, 2.638008993471885e-07, 5.285888370866142e-10
0, 0, 273, 2.640841785250814e-07, 5.298194551331501e-10
0, 0, 274, 2.735563100486615e-07, 5.473963309645979e-10
0, 0, 275, 2.696069998364692e-07, 5.413250748708365e-10
0, 0, 276, 2.700276695577486e-07, 5.460522211957057e-10
0, 0, 277, 2.734179531671543e-07, 5.546774570620295e-10
0, 0, 278, 2.725752779042523e-07, 5.526121032791877e-10
0, 0, 279, 2.731301265157526e-07, 5.594974888935168e-10
0, 0, 280, 2.689517657472607e-07, 5.543050910819129e-10
0, 0, 281, 2.697985621580301e-07, 5.589141472763626e-10
0, 0, 282, 2.704373969208973e-07, 5.648699554608048e-10
0, 0, 283, 2.703838788420398e-07, 5.620779204688504e-10
0, 0, 284, 2.719321798849705e-07, 5.687842251506965e-10
0, 0, 285, 2.753393175680685e-07, 5.757988865444496e-10
0, 0, 286, 2.785215258427343e-07, 5.85729266000294e-10
0, 0, 287, 2.797915783503413e-07, 5.89632046480588e-10
0, 0, 288, 2.78938983910848e-07, 5.867371852942459e-10
0, 0, 289, 2.851610645393521e-07, 5.993276760299889e-10
0, 0, 290, 2.819292603817303e-07, 5.953794376992135e-10
0, 0, 291, 2.824490934472124e-07, 6.000908239216241e-10
0, 0, 292, 2.807068426591286e-07, 6.021807613010185e-10
0, 0, 293, 2.841475748027733e-07, 6.108574618937916e-10
0, 0, 294, 2.896762794080132e-07, 6.199612580497851e-10
0, 0, 295, 2.966800991544005e-07, 6.332470270211511e-10
0, 0, 296, 2.994426893110358e-07, 6.393554538634302e-10
0, 0, 297, 3.043696210625058e-07, 6.50317096581931e-10
0, 0, 298, 3.084934121488914e-07, 6.564286503081834e-10
0, 0, 299, 3.092707743235223e-07, 6.597440348460058e-10
0, 0, 300, 3.124536078757956e-07, 6.682670508530043e-10
0, 0, 301, 3.158376102874172e-07, 6.750135464614641e-10
0, 0, 302, 3.23032963933656e-07, 6.932067424722959e-10
0, 0, 303, 3.17597624643895e-07, 6.908655967345087e-10
0, 0, 304, 3.180414864800696e-07, 7.033085985266056e-10
0, 0, 305, 3.227115143999981e-07, 7.142644247750103e-10
0, 0, 306, 3.246001369916485e-07, 7.200854361493967e-10
0, 0, 307, 3.285094862803817e-07, 7.328907418612877e-10
0, 0, 308, 3.313500087642751e-07, 7.446296973576388e-10
0, 0, 309, 3.316063441616279e-07, 7.503190316875547e-10
0, 0, 310, 3.388601044207462e-07, 7.711669111092282e-10
0, 0, 311, 3.438866542637697e-07, 7.819025276673176e-10
0, 0, 312, 3.594932138639706e-07, 8.15733178075726e-10
0, 0, 313, 3.617482207118883e-07, 8.201941857856932e-10
0, 0, 314, 3.695565169437032e-07, 8.44938002561513e-10
0, 0, 315, 3.774669039557921e-07, 8.661081436873676e-10
0, 0, 316, 3.844256468710228e-07, 8.895133993346231e-10
0, 0, 317, 3.978536824433831e-07, 9.246453098546798e-10
0, 0, 318, 4.075510275924898e-07, 9.505493530752216e-10
0, 0, 319, 4.211165673950745e-07, 9.923374751667072e-10
0, 0, 320, 4.377800166821544e-07, 1.043363343479948e-09
0, 0, 321, 4.662246908537782e-07, 1.165470710738995e-09
0, 0, 322, 4.782939981851086e-07, 1.173796207311682e-09
0, 0, 323, 4.991556465938629e-07, 1.214777194169417e-09
0, 0, 324, 5.350215701582783e-07, 1.355516257629588e-09
0, 0, 325, 5.785765324617387e-07, 1.476540413441673e-09
0, 0, 326, 6.60015416542592e-07, 1.742947663278227e-09
0, 0, 327, 7.247758730954956e-07, 1.990947897164624e-09
0, 0, 328, 6.54101654617989e-07, 1.910422565762852e-09
0, 0, 329, 5.819840112053498e-07, 1.847063687827578e-09
0, 0, 330, 5.574821670961683e-07, 1.836491282347434e-09
0, 0, 331, 5.729974077439692e-07, 1.988689828836568e-09
0, 0, 332, 5.242475822342385e-07, 1.974425782891746e-09
0, 0, 333, 4.211870532344619e-07, 1.866156416979094e-09
0, 0, 334, 3.166682915889396e-07, 1.564886681562479e-09
0, 0, 335, 2.167067378877618e-07, 1.399579524928299e-09
0, 0, 336, 8.113990190850018e-08, 7.493838667968367e-10
0, 0, 337, 7.247601985227448e-08, 7.700044438295373e-10
0, 0, 338, 5.542041137118758e-08, 6.680622145601162e-10
0, 0, 339, 3.908415280307054e-08, 6.090974916029259e-10
0, 0, 340, 1.601971355569276e-08, 3.280305838293011e-10
0, 0, 341, 9.391516009316092e-09, 2.958133793543227e-10
0, 0, 342, 7.051160988424954e-09, 2.220970141403343e-10
0, 0, 343, 0, 0
0, 0, 344, 0, 0
0, 0, 345, 0, 0
0, 0, 346, 0, 0
0, 0, 347, 0, 0
0, 0, 348, 0, 0
0, 0, 349, 0, 0
