# TOPAS Version: 3.9
# Parameter File: carbone_430MeVbroad.txt
# Results for scorer: DoseAtPhantom
# Scored in component: Phantom
# X in 1 bin  of 1 cm
# Y in 1 bin  of 1 cm
# Z in 350 bins of 0.1 cm
# DoseToMedium ( Gy ) : Sum   Standard_Deviation   
0, 0, 0, 5.034484729549149e-06, 7.540559670611968e-09
0, 0, 1, 5.184345354791731e-06, 7.747662861678986e-09
0, 0, 2, 5.236975994193926e-06, 7.817543510214128e-09
0, 0, 3, 5.276557658362435e-06, 7.887225996230889e-09
0, 0, 4, 5.278053777146852e-06, 7.879970571516005e-09
0, 0, 5, 5.303033958625747e-06, 7.893828916120113e-09
0, 0, 6, 5.283163773128763e-06, 7.85210319535924e-09
0, 0, 7, 5.290728495310759e-06, 7.874976940192991e-09
0, 0, 8, 5.295500614010962e-06, 7.892023780637824e-09
0, 0, 9, 5.309956577548292e-06, 7.903941959973925e-09
0, 0, 10, 5.319936462910846e-06, 7.908535045361321e-09
0, 0, 11, 5.29785938852001e-06, 7.898890283831967e-09
0, 0, 12, 5.320450782164698e-06, 7.930733879238155e-09
0, 0, 13, 5.335767582437256e-06, 7.950836872368097e-09
0, 0, 14, 5.329764917405555e-06, 7.947881848406894e-09
0, 0, 15, 5.344275450624991e-06, 7.963975136265831e-09
0, 0, 16, 5.361015610105824e-06, 7.996273767744112e-09
0, 0, 17, 5.310517735779285e-06, 7.915177119798313e-09
0, 0, 18, 5.355314897315111e-06, 7.983389625969095e-09
0, 0, 19, 5.336350568541093e-06, 7.961269723097673e-09
0, 0, 20, 5.33952470505028e-06, 7.957924541202659e-09
0, 0, 21, 5.346478701540036e-06, 7.977109248194149e-09
0, 0, 22, 5.353086635295767e-06, 7.975754271634318e-09
0, 0, 23, 5.405220235843444e-06, 8.053132122263901e-09
0, 0, 24, 5.40196560905315e-06, 8.053385690189793e-09
0, 0, 25, 5.376783519750461e-06, 8.002487025952498e-09
0, 0, 26, 5.402767328632763e-06, 8.049113811564079e-09
0, 0, 27, 5.401756425271742e-06, 8.05148508568623e-09
0, 0, 28, 5.401053840614622e-06, 8.061950893529339e-09
0, 0, 29, 5.425271865533432e-06, 8.102613957882585e-09
0, 0, 30, 5.423912170954281e-06, 8.091957535392741e-09
0, 0, 31, 5.411258825915866e-06, 8.08347696782307e-09
0, 0, 32, 5.437381332740188e-06, 8.102761753886712e-09
0, 0, 33, 5.414995030150749e-06, 8.078871390599194e-09
0, 0, 34, 5.432375019154279e-06, 8.10077743570082e-09
0, 0, 35, 5.449848686112091e-06, 8.111706775831148e-09
0, 0, 36, 5.486217105499236e-06, 8.134808662675485e-09
0, 0, 37, 5.519594651559601e-06, 8.187729936494913e-09
0, 0, 38, 5.479350875248201e-06, 8.133688898995394e-09
0, 0, 39, 5.516817509487737e-06, 8.187172403438169e-09
0, 0, 40, 5.506883553607622e-06, 8.166613726968158e-09
0, 0, 41, 5.488490842253668e-06, 8.1378385110396e-09
0, 0, 42, 5.514101303560892e-06, 8.192095125765778e-09
0, 0, 43, 5.541318842006149e-06, 8.245711995523681e-09
0, 0, 44, 5.5353943935188e-06, 8.230128338954527e-09
0, 0, 45, 5.524099378817482e-06, 8.211375403809928e-09
0, 0, 46, 5.540263373404741e-06, 8.241021945606525e-09
0, 0, 47, 5.535011041502003e-06, 8.24323930870108e-09
0, 0, 48, 5.529923782887636e-06, 8.215014113696679e-09
0, 0, 49, 5.57793646294158e-06, 8.292710325811675e-09
0, 0, 50, 5.559758847084595e-06, 8.255783832099472e-09
0, 0, 51, 5.566746949625667e-06, 8.26546364307804e-09
0, 0, 52, 5.573291218752274e-06, 8.282040853132267e-09
0, 0, 53, 5.560213594435481e-06, 8.262989312006481e-09
0, 0, 54, 5.574454007728491e-06, 8.277837260963192e-09
0, 0, 55, 5.62053037356236e-06, 8.352493991034111e-09
0, 0, 56, 5.614281235466478e-06, 8.3303321281642e-09
0, 0, 57, 5.656205303239403e-06, 8.370163890732971e-09
0, 0, 58, 5.642211817757925e-06, 8.362796086802482e-09
0, 0, 59, 5.660832812282024e-06, 8.3979388407976e-09
0, 0, 60, 5.671973667631391e-06, 8.402617847757833e-09
0, 0, 61, 5.658561349264346e-06, 8.381294522701638e-09
0, 0, 62, 5.681707079929765e-06, 8.415323487240468e-09
0, 0, 63, 5.664378477376886e-06, 8.388454787281209e-09
0, 0, 64, 5.690237230737694e-06, 8.438078118610154e-09
0, 0, 65, 5.700670499209082e-06, 8.445165015742452e-09
0, 0, 66, 5.711177891498664e-06, 8.471890731691426e-09
0, 0, 67, 5.68419227420236e-06, 8.431395976464232e-09
0, 0, 68, 5.657972906192299e-06, 8.390001432565965e-09
0, 0, 69, 5.703985607397044e-06, 8.473872992596305e-09
0, 0, 70, 5.718889951822348e-06, 8.486332195755102e-09
0, 0, 71, 5.690523266821401e-06, 8.458590514705549e-09
0, 0, 72, 5.729031272494467e-06, 8.513027488789992e-09
0, 0, 73, 5.735786089644535e-06, 8.54331258289366e-09
0, 0, 74, 5.716829946322832e-06, 8.532119636009854e-09
0, 0, 75, 5.688969395123422e-06, 8.512826476451663e-09
0, 0, 76, 5.687576958735008e-06, 8.516724618716542e-09
0, 0, 77, 5.698162112821592e-06, 8.542088894368306e-09
0, 0, 78, 5.727367351937573e-06, 8.575109670766259e-09
0, 0, 79, 5.702155249309726e-06, 8.540781254703815e-09
0, 0, 80, 5.768490609625587e-06, 8.645820151349191e-09
0, 0, 81, 5.744333520851796e-06, 8.599174793344028e-09
0, 0, 82, 5.72505223317421e-06, 8.594751797861479e-09
0, 0, 83, 5.727953976020217e-06, 8.591555762609229e-09
0, 0, 84, 5.754500762122916e-06, 8.635441236494094e-09
0, 0, 85, 5.761705779150361e-06, 8.642649516646445e-09
0, 0, 86, 5.721361958421767e-06, 8.576701978357071e-09
0, 0, 87, 5.735887043556431e-06, 8.602754543038226e-09
0, 0, 88, 5.746489478042349e-06, 8.623643795572616e-09
0, 0, 89, 5.759014584327815e-06, 8.650190731421845e-09
0, 0, 90, 5.776615125796525e-06, 8.68300126753813e-09
0, 0, 91, 5.793400305265095e-06, 8.702903524267004e-09
0, 0, 92, 5.788916041638004e-06, 8.707070766083764e-09
0, 0, 93, 5.791395778942388e-06, 8.72444896264502e-09
0, 0, 94, 5.798826805403223e-06, 8.723254618388177e-09
0, 0, 95, 5.793766376882559e-06, 8.723243378550839e-09
0, 0, 96, 5.804665761388605e-06, 8.732302321492709e-09
0, 0, 97, 5.827917448186781e-06, 8.777548811064768e-09
0, 0, 98, 5.850410616403678e-06, 8.812868216824402e-09
0, 0, 99, 5.852046342624817e-06, 8.80527520934281e-09
0, 0, 100, 5.873337613593321e-06, 8.836728368593297e-09
0, 0, 101, 5.841331130795879e-06, 8.816172701407477e-09
0, 0, 102, 5.840375706611667e-06, 8.81223522702991e-09
0, 0, 103, 5.893148227187339e-06, 8.89126355903455e-09
0, 0, 104, 5.844036422786303e-06, 8.81157701511484e-09
0, 0, 105, 5.868208063475322e-06, 8.875829772755511e-09
0, 0, 106, 5.866260835318826e-06, 8.880638041637738e-09
0, 0, 107, 5.882269761059433e-06, 8.891368931818396e-09
0, 0, 108, 5.872115252714138e-06, 8.88338761803557e-09
0, 0, 109, 5.894471087231068e-06, 8.912200117740425e-09
0, 0, 110, 5.902646989852656e-06, 8.922413660315694e-09
0, 0, 111, 5.920354851696175e-06, 8.955260950999121e-09
0, 0, 112, 5.958295332675334e-06, 9.002268769733653e-09
0, 0, 113, 5.931041414442006e-06, 8.968537496469968e-09
0, 0, 114, 5.937183232163079e-06, 8.991564024409559e-09
0, 0, 115, 5.934934506512946e-06, 8.982615751481994e-09
0, 0, 116, 5.960344424238428e-06, 9.025333789133588e-09
0, 0, 117, 6.005591330904281e-06, 9.084378936113958e-09
0, 0, 118, 5.980565674690297e-06, 9.034392761148562e-09
0, 0, 119, 6.028263214830076e-06, 9.109081737453071e-09
0, 0, 120, 6.020559339958709e-06, 9.105562387468101e-09
0, 0, 121, 5.99543864154839e-06, 9.072991311310231e-09
0, 0, 122, 6.0049856074329e-06, 9.092258051576638e-09
0, 0, 123, 5.999248969601467e-06, 9.093731488851727e-09
0, 0, 124, 6.028155894455267e-06, 9.149155798282412e-09
0, 0, 125, 6.033109912095824e-06, 9.148347385005863e-09
0, 0, 126, 6.051360742276302e-06, 9.187794652765987e-09
0, 0, 127, 6.019793545419816e-06, 9.152773492603334e-09
0, 0, 128, 6.019730335538043e-06, 9.149027766036385e-09
0, 0, 129, 6.060363375581801e-06, 9.208154803857899e-09
0, 0, 130, 6.073816621210426e-06, 9.227560230000256e-09
0, 0, 131, 6.096695869928226e-06, 9.260633293237664e-09
0, 0, 132, 6.136799129308201e-06, 9.299784236959837e-09
0, 0, 133, 6.115523774496978e-06, 9.288949061570373e-09
0, 0, 134, 6.103089162934339e-06, 9.28474111120075e-09
0, 0, 135, 6.123546427261317e-06, 9.304802380094661e-09
0, 0, 136, 6.136341198725859e-06, 9.323109252361512e-09
0, 0, 137, 6.152826244942844e-06, 9.327590078717889e-09
0, 0, 138, 6.177372597448993e-06, 9.364865382335275e-09
0, 0, 139, 6.185921392898308e-06, 9.399594780151207e-09
0, 0, 140, 6.195944024511846e-06, 9.417796912711189e-09
0, 0, 141, 6.188782663230086e-06, 9.407790810273426e-09
0, 0, 142, 6.221097464731429e-06, 9.447558938960436e-09
0, 0, 143, 6.237527941266308e-06, 9.458549058422318e-09
0, 0, 144, 6.285258677962702e-06, 9.536723730098016e-09
0, 0, 145, 6.287942596827634e-06, 9.531789584397036e-09
0, 0, 146, 6.296299034147523e-06, 9.547729377992584e-09
0, 0, 147, 6.300167569861514e-06, 9.548611702833837e-09
0, 0, 148, 6.300022050709231e-06, 9.558814021838255e-09
0, 0, 149, 6.339317224046681e-06, 9.612705889206501e-09
0, 0, 150, 6.371622475853655e-06, 9.669630727389793e-09
0, 0, 151, 6.348998340399703e-06, 9.631285758497191e-09
0, 0, 152, 6.354405286401743e-06, 9.634744759629786e-09
0, 0, 153, 6.365582066791831e-06, 9.648034350805217e-09
0, 0, 154, 6.403673523891484e-06, 9.714531139301413e-09
0, 0, 155, 6.437704087147722e-06, 9.762911140905973e-09
0, 0, 156, 6.433071575884242e-06, 9.754011853413146e-09
0, 0, 157, 6.453292371588759e-06, 9.789575724370361e-09
0, 0, 158, 6.466478225775063e-06, 9.812077339491421e-09
0, 0, 159, 6.443236998165958e-06, 9.782540070926858e-09
0, 0, 160, 6.481701802840689e-06, 9.832731835141015e-09
0, 0, 161, 6.473720986832632e-06, 9.825563522328225e-09
0, 0, 162, 6.522275270981481e-06, 9.911609303231796e-09
0, 0, 163, 6.483849574578926e-06, 9.878339555661969e-09
0, 0, 164, 6.48346713205683e-06, 9.875226960740563e-09
0, 0, 165, 6.506845693365904e-06, 9.910141638012836e-09
0, 0, 166, 6.511275387310889e-06, 9.916502465882056e-09
0, 0, 167, 6.518756890727673e-06, 9.923456503852336e-09
0, 0, 168, 6.511018455057638e-06, 9.956586312410717e-09
0, 0, 169, 6.526779088744661e-06, 9.97718102998069e-09
0, 0, 170, 6.585499704669928e-06, 1.007532921094981e-08
0, 0, 171, 6.567675427504582e-06, 1.005175948460889e-08
0, 0, 172, 6.582890819117893e-06, 1.00831341417829e-08
0, 0, 173, 6.619754458370153e-06, 1.014087853373018e-08
0, 0, 174, 6.641343134106137e-06, 1.016404259444408e-08
0, 0, 175, 6.659343398496276e-06, 1.019760901324975e-08
0, 0, 176, 6.680852948193206e-06, 1.022559851729625e-08
0, 0, 177, 6.71749830871704e-06, 1.02603858178924e-08
0, 0, 178, 6.719024895573966e-06, 1.027205100474812e-08
0, 0, 179, 6.682918865408283e-06, 1.022339434684853e-08
0, 0, 180, 6.743515314155957e-06, 1.030260175672452e-08
0, 0, 181, 6.747804036422167e-06, 1.032427018777431e-08
0, 0, 182, 6.77570187690435e-06, 1.038611146945132e-08
0, 0, 183, 6.79395407132688e-06, 1.041418259142774e-08
0, 0, 184, 6.834588475612691e-06, 1.047140184102889e-08
0, 0, 185, 6.849010787846055e-06, 1.049083895235107e-08
0, 0, 186, 6.881959052407183e-06, 1.053422846449734e-08
0, 0, 187, 6.898381343489746e-06, 1.053924272226672e-08
0, 0, 188, 6.880670298414771e-06, 1.051886421675746e-08
0, 0, 189, 6.897178991494002e-06, 1.056593836735449e-08
0, 0, 190, 6.937399120943155e-06, 1.06189501936676e-08
0, 0, 191, 6.958096037124051e-06, 1.062805670271915e-08
0, 0, 192, 6.986016614973778e-06, 1.068570513276159e-08
0, 0, 193, 7.04576586940675e-06, 1.075595043569148e-08
0, 0, 194, 7.069489129207795e-06, 1.076555838726817e-08
0, 0, 195, 7.075106168485945e-06, 1.078584234323003e-08
0, 0, 196, 7.159062988648657e-06, 1.090136968220166e-08
0, 0, 197, 7.137122793210438e-06, 1.086795810412661e-08
0, 0, 198, 7.153524620662211e-06, 1.088899212862726e-08
0, 0, 199, 7.163822829170385e-06, 1.093770086915315e-08
0, 0, 200, 7.187826668086927e-06, 1.098723949017726e-08
0, 0, 201, 7.220789029815933e-06, 1.100772431223652e-08
0, 0, 202, 7.251030183397233e-06, 1.106088261469855e-08
0, 0, 203, 7.300770448637195e-06, 1.113412247180908e-08
0, 0, 204, 7.263622592290631e-06, 1.11044606063302e-08
0, 0, 205, 7.303078746190295e-06, 1.11650365189527e-08
0, 0, 206, 7.324566922761733e-06, 1.119406344791945e-08
0, 0, 207, 7.359954906860366e-06, 1.124972186468227e-08
0, 0, 208, 7.373828793788562e-06, 1.12740654896143e-08
0, 0, 209, 7.412817467411514e-06, 1.133144046774946e-08
0, 0, 210, 7.47140393286827e-06, 1.141349213712633e-08
0, 0, 211, 7.487077709811274e-06, 1.142261265914388e-08
0, 0, 212, 7.527002708229702e-06, 1.148877720902859e-08
0, 0, 213, 7.543192623415962e-06, 1.150748351308763e-08
0, 0, 214, 7.484480647690361e-06, 1.146882739411955e-08
0, 0, 215, 7.535476015618769e-06, 1.155000810310879e-08
0, 0, 216, 7.575252311653458e-06, 1.161195855701265e-08
0, 0, 217, 7.585008916066727e-06, 1.163370033189677e-08
0, 0, 218, 7.617936716997065e-06, 1.168799718414952e-08
0, 0, 219, 7.642478522029705e-06, 1.174822264011357e-08
0, 0, 220, 7.707273653068114e-06, 1.184073756825907e-08
0, 0, 221, 7.731347977824043e-06, 1.187067986517712e-08
0, 0, 222, 7.728477612545248e-06, 1.186724641602704e-08
0, 0, 223, 7.753411409794353e-06, 1.192464875465875e-08
0, 0, 224, 7.78921639721375e-06, 1.196007305313182e-08
0, 0, 225, 7.904118319856934e-06, 1.211901551665219e-08
0, 0, 226, 7.918785740912426e-06, 1.211103766680577e-08
0, 0, 227, 7.941749572637491e-06, 1.217119671128477e-08
0, 0, 228, 7.98124438006198e-06, 1.222646333217993e-08
0, 0, 229, 8.018454536795616e-06, 1.229870422734423e-08
0, 0, 230, 8.012321814021561e-06, 1.230761968170629e-08
0, 0, 231, 8.061107109824661e-06, 1.239736627284201e-08
0, 0, 232, 8.087001333478838e-06, 1.241885127773164e-08
0, 0, 233, 8.131016329571139e-06, 1.247671343458515e-08
0, 0, 234, 8.168355634552427e-06, 1.256896998659555e-08
0, 0, 235, 8.211087333620526e-06, 1.260089206084869e-08
0, 0, 236, 8.311875717481598e-06, 1.273442623568347e-08
0, 0, 237, 8.249473467003554e-06, 1.269151861542626e-08
0, 0, 238, 8.242615876952186e-06, 1.276263788143573e-08
0, 0, 239, 8.22298079583561e-06, 1.280404635070532e-08
0, 0, 240, 8.281904229079373e-06, 1.291090002752116e-08
0, 0, 241, 8.333078767464031e-06, 1.29861815483837e-08
0, 0, 242, 8.409666406805627e-06, 1.308768741456481e-08
0, 0, 243, 8.406996130361222e-06, 1.312818567741985e-08
0, 0, 244, 8.488491403113585e-06, 1.322298812433246e-08
0, 0, 245, 8.57111626828555e-06, 1.333984735034025e-08
0, 0, 246, 8.606957635493018e-06, 1.340872807226487e-08
0, 0, 247, 8.635584890726022e-06, 1.345103006288667e-08
0, 0, 248, 8.656495992909186e-06, 1.350541577158969e-08
0, 0, 249, 8.714705472812057e-06, 1.360409303052399e-08
0, 0, 250, 8.80071002029581e-06, 1.37377826913682e-08
0, 0, 251, 8.811991392576601e-06, 1.375909512132611e-08
0, 0, 252, 8.962157153291628e-06, 1.393957373381683e-08
0, 0, 253, 9.023797247209586e-06, 1.403729947241883e-08
0, 0, 254, 9.060243428393733e-06, 1.408655463631207e-08
0, 0, 255, 9.173983016808052e-06, 1.426584455287293e-08
0, 0, 256, 9.196471182804089e-06, 1.430628855666639e-08
0, 0, 257, 9.298605618823785e-06, 1.446164152910511e-08
0, 0, 258, 9.348771527584177e-06, 1.454488423480639e-08
0, 0, 259, 9.405895980307832e-06, 1.466330408671797e-08
0, 0, 260, 9.489606782153714e-06, 1.479368764405257e-08
0, 0, 261, 9.518115803075489e-06, 1.484502064067233e-08
0, 0, 262, 9.58064993028529e-06, 1.497240694560279e-08
0, 0, 263, 9.690375009085983e-06, 1.51396502518701e-08
0, 0, 264, 9.789593605091795e-06, 1.526771348144289e-08
0, 0, 265, 9.900199984258506e-06, 1.543429818199668e-08
0, 0, 266, 9.997588676924352e-06, 1.558853819084846e-08
0, 0, 267, 1.008877825370291e-05, 1.573275770008578e-08
0, 0, 268, 1.019545015878975e-05, 1.590189068488595e-08
0, 0, 269, 1.026572499540634e-05, 1.600737362699442e-08
0, 0, 270, 1.037495076161576e-05, 1.620791684467213e-08
0, 0, 271, 1.045621411321918e-05, 1.634624249285391e-08
0, 0, 272, 1.055667689797701e-05, 1.653004207426879e-08
0, 0, 273, 1.062601859302958e-05, 1.66592934834956e-08
0, 0, 274, 1.070913640432991e-05, 1.684906324685523e-08
0, 0, 275, 1.081471873476403e-05, 1.704960907513855e-08
0, 0, 276, 1.093127775675384e-05, 1.726571837324736e-08
0, 0, 277, 1.106547642848454e-05, 1.749054834450885e-08
0, 0, 278, 1.115896520786919e-05, 1.767379722541717e-08
0, 0, 279, 1.131105636886787e-05, 1.791910295615279e-08
0, 0, 280, 1.145080113928998e-05, 1.814777982315391e-08
0, 0, 281, 1.160868851002306e-05, 1.843273590253135e-08
0, 0, 282, 1.184870961878914e-05, 1.875503921035279e-08
0, 0, 283, 1.207619061460719e-05, 1.907465618915955e-08
0, 0, 284, 1.225468986376654e-05, 1.936468107457686e-08
0, 0, 285, 1.246192914550193e-05, 1.968979351549933e-08
0, 0, 286, 1.269495351152727e-05, 2.005879676090734e-08
0, 0, 287, 1.288089424633654e-05, 2.035580081250046e-08
0, 0, 288, 1.314236033067573e-05, 2.082715230709074e-08
0, 0, 289, 1.345190503343474e-05, 2.128543524346884e-08
0, 0, 290, 1.381623951601796e-05, 2.182521215318531e-08
0, 0, 291, 1.406864885211689e-05, 2.226842923325653e-08
0, 0, 292, 1.442691063857637e-05, 2.285218644913069e-08
0, 0, 293, 1.476284705859143e-05, 2.34309974474978e-08
0, 0, 294, 1.516811880719615e-05, 2.408057880589147e-08
0, 0, 295, 1.562907164043281e-05, 2.484073156216763e-08
0, 0, 296, 1.611531115486287e-05, 2.565923711499104e-08
0, 0, 297, 1.664076808083337e-05, 2.652222976799195e-08
0, 0, 298, 1.725213769532274e-05, 2.761122427926387e-08
0, 0, 299, 1.803727536753286e-05, 2.882972982211548e-08
0, 0, 300, 1.885521487565711e-05, 3.018351068766659e-08
0, 0, 301, 2.006595605053008e-05, 3.202124194044346e-08
0, 0, 302, 2.128521919075865e-05, 3.407277377730436e-08
0, 0, 303, 2.28945955313975e-05, 3.673142196801254e-08
0, 0, 304, 2.492537532816641e-05, 4.025051527662476e-08
0, 0, 305, 2.796706939989235e-05, 4.569565344536929e-08
0, 0, 306, 3.310398824396543e-05, 5.51005319840851e-08
0, 0, 307, 4.06970466428902e-05, 6.996930937777539e-08
0, 0, 308, 4.899096529697999e-05, 8.905272690870979e-08
0, 0, 309, 3.423705857130699e-05, 8.153753010582349e-08
0, 0, 310, 9.362269338453189e-06, 4.465812968875306e-08
0, 0, 311, 5.76544721297978e-07, 1.068471961840354e-08
0, 0, 312, 2.546797668590006e-11, 8.027663937168123e-13
0, 0, 313, 1.813172984151123e-12, 5.715050722240642e-14
0, 0, 314, 2.871869192108689e-12, 9.053710408257457e-14
0, 0, 315, 4.610621780198887e-12, 1.45329654826066e-13
0, 0, 316, 0, 0
0, 0, 317, 0, 0
0, 0, 318, 0, 0
0, 0, 319, 0, 0
0, 0, 320, 0, 0
0, 0, 321, 0, 0
0, 0, 322, 0, 0
0, 0, 323, 0, 0
0, 0, 324, 0, 0
0, 0, 325, 0, 0
0, 0, 326, 0, 0
0, 0, 327, 3.386108060610127e-11, 1.066454336861213e-12
0, 0, 328, 0, 0
0, 0, 329, 0, 0
0, 0, 330, 0, 0
0, 0, 331, 0, 0
0, 0, 332, 0, 0
0, 0, 333, 0, 0
0, 0, 334, 7.897322552852248e-12, 2.487220027896638e-13
0, 0, 335, 0, 0
0, 0, 336, 3.848174209841737e-11, 1.212469619353774e-12
0, 0, 337, 0, 0
0, 0, 338, 0, 0
0, 0, 339, 0, 0
0, 0, 340, 0, 0
0, 0, 341, 0, 0
0, 0, 342, 0, 0
0, 0, 343, 0, 0
0, 0, 344, 0, 0
0, 0, 345, 0, 0
0, 0, 346, 0, 0
0, 0, 347, 0, 0
0, 0, 348, 0, 0
0, 0, 349, 0, 0
