# TOPAS Version: 3.9
# Parameter File: proton_230MeVbroad.txt
# Results for scorer: DoseAtPhantom
# Scored in component: Phantom
# X in 1 bin  of 1 cm
# Y in 1 bin  of 1 cm
# Z in 350 bins of 0.1 cm
# DoseToMedium ( Gy ) : Sum   Standard_Deviation   
0, 0, 0, 0.0002003330155275762, 3.067780628079322e-10
0, 0, 1, 0.0002044990687863901, 3.149601437036652e-10
0, 0, 2, 0.0002047341986326501, 3.153597638581279e-10
0, 0, 3, 0.0002050100010819733, 3.157629897658118e-10
0, 0, 4, 0.0002052634517895058, 3.161087911845206e-10
0, 0, 5, 0.0002056044759228826, 3.167010052790745e-10
0, 0, 6, 0.0002058834070339799, 3.17114398287973e-10
0, 0, 7, 0.0002059840189758688, 3.17198304854831e-10
0, 0, 8, 0.0002061847044387832, 3.174612613606364e-10
0, 0, 9, 0.0002063318970613182, 3.176214496279196e-10
0, 0, 10, 0.0002068386238534003, 3.184467212214819e-10
0, 0, 11, 0.0002067770110443234, 3.182306937603781e-10
0, 0, 12, 0.000207210672670044, 3.189534294309904e-10
0, 0, 13, 0.0002073557261610404, 3.190836553847119e-10
0, 0, 14, 0.0002077138778986409, 3.196958001096016e-10
0, 0, 15, 0.0002079968253383413, 3.200475239640701e-10
0, 0, 16, 0.0002082112332573161, 3.204355619667862e-10
0, 0, 17, 0.0002083823928842321, 3.205394447676912e-10
0, 0, 18, 0.0002088940527755767, 3.214097503902732e-10
0, 0, 19, 0.0002089236222673208, 3.213506201046826e-10
0, 0, 20, 0.0002090823254548013, 3.215292074911339e-10
0, 0, 21, 0.000209368736250326, 3.218916168424938e-10
0, 0, 22, 0.0002096955868182704, 3.224110273159205e-10
0, 0, 23, 0.0002099736593663692, 3.228869653748582e-10
0, 0, 24, 0.0002102886064676568, 3.233406150965651e-10
0, 0, 25, 0.0002105668681906536, 3.238015223252608e-10
0, 0, 26, 0.0002106970496242866, 3.238475985419261e-10
0, 0, 27, 0.000211040023714304, 3.245783795728342e-10
0, 0, 28, 0.0002112195215886459, 3.245951061859396e-10
0, 0, 29, 0.000211339327506721, 3.247660200262317e-10
0, 0, 30, 0.0002117259573424235, 3.254403439695051e-10
0, 0, 31, 0.0002118957490893081, 3.256509504440557e-10
0, 0, 32, 0.000212257873499766, 3.261464352375193e-10
0, 0, 33, 0.0002124124148394912, 3.262979772547677e-10
0, 0, 34, 0.0002127011539414525, 3.26794783362645e-10
0, 0, 35, 0.0002130358916474506, 3.273747667668816e-10
0, 0, 36, 0.0002131573128281161, 3.27445966374369e-10
0, 0, 37, 0.0002134909736923873, 3.280060833985715e-10
0, 0, 38, 0.0002137220144504681, 3.282805264939836e-10
0, 0, 39, 0.0002139834250556305, 3.2869319484931e-10
0, 0, 40, 0.0002140788274118677, 3.287171666130693e-10
0, 0, 41, 0.0002146170591004193, 3.295962599165929e-10
0, 0, 42, 0.0002148411440430209, 3.299963349439529e-10
0, 0, 43, 0.0002152529777958989, 3.305508038081686e-10
0, 0, 44, 0.0002153169189114124, 3.306400320079526e-10
0, 0, 45, 0.000215563690289855, 3.311751830892119e-10
0, 0, 46, 0.0002159760042559355, 3.317633779066307e-10
0, 0, 47, 0.0002160748554160818, 3.31842801861269e-10
0, 0, 48, 0.0002162919845432043, 3.321683628920725e-10
0, 0, 49, 0.0002165444166166708, 3.326098898154664e-10
0, 0, 50, 0.000216884131077677, 3.332052560019628e-10
0, 0, 51, 0.0002170597290387377, 3.334123847272384e-10
0, 0, 52, 0.0002174461842514575, 3.340992483898078e-10
0, 0, 53, 0.0002176648995373398, 3.346275803641344e-10
0, 0, 54, 0.0002178438735427335, 3.352648891033957e-10
0, 0, 55, 0.0002181091113016009, 3.351504712553568e-10
0, 0, 56, 0.0002184447075705975, 3.357928458419531e-10
0, 0, 57, 0.0002187226054957137, 3.362195123905083e-10
0, 0, 58, 0.0002189298393204808, 3.365243139835547e-10
0, 0, 59, 0.00021918753918726, 3.368950495648438e-10
0, 0, 60, 0.0002195107081206515, 3.373671895907964e-10
0, 0, 61, 0.0002195926354033872, 3.373837365703661e-10
0, 0, 62, 0.0002198410802520812, 3.378139700913019e-10
0, 0, 63, 0.0002202374016633257, 3.385010522243125e-10
0, 0, 64, 0.0002205623750342056, 3.38978062982537e-10
0, 0, 65, 0.0002208679215982556, 3.394242307908599e-10
0, 0, 66, 0.0002212309773312882, 3.400312571389607e-10
0, 0, 67, 0.0002214690030086786, 3.404536855733228e-10
0, 0, 68, 0.0002216213761130348, 3.406816426652537e-10
0, 0, 69, 0.0002218422014266253, 3.409724702657896e-10
0, 0, 70, 0.0002223618503194302, 3.417924762649001e-10
0, 0, 71, 0.00022260652622208, 3.422308812061085e-10
0, 0, 72, 0.0002228876546723768, 3.42702499802048e-10
0, 0, 73, 0.0002229734818683937, 3.428228945377529e-10
0, 0, 74, 0.0002233349077869207, 3.434832525893073e-10
0, 0, 75, 0.0002235479041701183, 3.438626647675551e-10
0, 0, 76, 0.0002238917513750494, 3.445623702237052e-10
0, 0, 77, 0.0002241037582280114, 3.448080776347545e-10
0, 0, 78, 0.0002244496281491593, 3.454595682465358e-10
0, 0, 79, 0.0002246237272629514, 3.456664791423967e-10
0, 0, 80, 0.0002249434910481796, 3.462990573251615e-10
0, 0, 81, 0.0002251900441478938, 3.467421421304709e-10
0, 0, 82, 0.0002252788690384477, 3.469250143365816e-10
0, 0, 83, 0.0002256350999232382, 3.475235230695279e-10
0, 0, 84, 0.0002259855391457677, 3.481767690895191e-10
0, 0, 85, 0.0002261220652144402, 3.483884721332821e-10
0, 0, 86, 0.0002263414935441688, 3.487662292671835e-10
0, 0, 87, 0.0002267660311190411, 3.496039766657975e-10
0, 0, 88, 0.0002270858531119302, 3.500847495847547e-10
0, 0, 89, 0.0002273565478390083, 3.505599197434061e-10
0, 0, 90, 0.0002277167222928256, 3.512397531053749e-10
0, 0, 91, 0.0002278262545587495, 3.514267579069161e-10
0, 0, 92, 0.0002279830514453351, 3.517538739861316e-10
0, 0, 93, 0.0002282565692439675, 3.523477902185671e-10
0, 0, 94, 0.0002286100498167798, 3.529455446766008e-10
0, 0, 95, 0.0002288049436174333, 3.53319572356096e-10
0, 0, 96, 0.000228869219426997, 3.535194480328692e-10
0, 0, 97, 0.0002293643192388117, 3.544064131086184e-10
0, 0, 98, 0.0002296071907039732, 3.547952883024333e-10
0, 0, 99, 0.0002299517946084961, 3.554706370244166e-10
0, 0, 100, 0.0002300794003531337, 3.558234431773215e-10
0, 0, 101, 0.0002303515066159889, 3.563920280941464e-10
0, 0, 102, 0.0002305612433701754, 3.567374175367026e-10
0, 0, 103, 0.000230719699175097, 3.57167469126719e-10
0, 0, 104, 0.0002310027193743736, 3.577274076162358e-10
0, 0, 105, 0.0002315081947017461, 3.587065894455074e-10
0, 0, 106, 0.000231546742725186, 3.587820204025834e-10
0, 0, 107, 0.0002318821643711999, 3.594850330488518e-10
0, 0, 108, 0.0002320745988981798, 3.598817809274866e-10
0, 0, 109, 0.0002323627559235319, 3.606130471486295e-10
0, 0, 110, 0.0002325157984159887, 3.609960074490215e-10
0, 0, 111, 0.0002327421098016202, 3.615513145256671e-10
0, 0, 112, 0.0002330361894564703, 3.622101169086042e-10
0, 0, 113, 0.0002331695286557078, 3.625089822434058e-10
0, 0, 114, 0.0002334266173420474, 3.63198807322736e-10
0, 0, 115, 0.0002335502067580819, 3.634364302309581e-10
0, 0, 116, 0.0002340289647690952, 3.644823321939605e-10
0, 0, 117, 0.0002339824859518558, 3.644939650700444e-10
0, 0, 118, 0.0002341754443477839, 3.649960134768637e-10
0, 0, 119, 0.0002344794775126502, 3.656842411979679e-10
0, 0, 120, 0.0002348645939491689, 3.665985255461828e-10
0, 0, 121, 0.0002348531852476299, 3.667240055736837e-10
0, 0, 122, 0.0002350429422222078, 3.67297828055798e-10
0, 0, 123, 0.0002352513984078541, 3.678404752012276e-10
0, 0, 124, 0.00023555668303743, 3.690811622989465e-10
0, 0, 125, 0.0002358219207962975, 3.690080613456478e-10
0, 0, 126, 0.0002359944628551602, 3.696337539778932e-10
0, 0, 127, 0.0002362047671340406, 3.704056555949065e-10
0, 0, 128, 0.0002363139792578295, 3.705882068923909e-10
0, 0, 129, 0.0002366740955039859, 3.713061363130704e-10
0, 0, 130, 0.0002369139692746103, 3.719559268310056e-10
0, 0, 131, 0.0002371565933572128, 3.725875799248926e-10
0, 0, 132, 0.000237250656937249, 3.729202429500439e-10
0, 0, 133, 0.0002374878386035562, 3.735809398803249e-10
0, 0, 134, 0.0002376106713199988, 3.739462785396248e-10
0, 0, 135, 0.0002378295612288639, 3.746169472316966e-10
0, 0, 136, 0.0002380153309786692, 3.750737643080006e-10
0, 0, 137, 0.000238256121519953, 3.757638867389666e-10
0, 0, 138, 0.0002384833787800744, 3.764925740408889e-10
0, 0, 139, 0.0002385721891187131, 3.769651081577054e-10
0, 0, 140, 0.0002387344429735094, 3.77562047412024e-10
0, 0, 141, 0.0002388377324678004, 3.779230771191894e-10
0, 0, 142, 0.0002392811875324696, 3.788916232486095e-10
0, 0, 143, 0.0002392553287791088, 3.792969539985535e-10
0, 0, 144, 0.0002395224873907864, 3.801656509672822e-10
0, 0, 145, 0.000239583954680711, 3.808067497928599e-10
0, 0, 146, 0.0002397851058049127, 3.811381477967516e-10
0, 0, 147, 0.0002399808581685647, 3.816771350746777e-10
0, 0, 148, 0.0002400897501502186, 3.821630733394693e-10
0, 0, 149, 0.000240307257627137, 3.828332446012883e-10
0, 0, 150, 0.0002404536207905039, 3.834324412726581e-10
0, 0, 151, 0.000240613124333322, 3.840428518426137e-10
0, 0, 152, 0.0002405720151728019, 3.84339842020087e-10
0, 0, 153, 0.0002409516309853643, 3.854319507045956e-10
0, 0, 154, 0.0002411505847703665, 3.859828219440589e-10
0, 0, 155, 0.0002412116155028343, 3.86476436377631e-10
0, 0, 156, 0.0002413546171737835, 3.870751120539945e-10
0, 0, 157, 0.0002414639893686399, 3.876961552963892e-10
0, 0, 158, 0.0002418471995042637, 3.886826986226274e-10
0, 0, 159, 0.0002418096264591441, 3.8904591415042e-10
0, 0, 160, 0.0002419013762846589, 3.895353594353114e-10
0, 0, 161, 0.0002421968238195404, 3.903641358545001e-10
0, 0, 162, 0.0002423767728032544, 3.909720102162539e-10
0, 0, 163, 0.000242545414948836, 3.920856498985505e-10
0, 0, 164, 0.0002426083519821987, 3.921408275216364e-10
0, 0, 165, 0.000242756272200495, 3.92819378054054e-10
0, 0, 166, 0.000243010013946332, 3.936551733538787e-10
0, 0, 167, 0.0002432906185276806, 3.946159091294913e-10
0, 0, 168, 0.0002433428890071809, 3.950538854032553e-10
0, 0, 169, 0.000243473201408051, 3.957258964313203e-10
0, 0, 170, 0.0002437183720758185, 3.966055945076439e-10
0, 0, 171, 0.0002438630326651037, 3.971546626563862e-10
0, 0, 172, 0.0002439167874399573, 3.976602971323098e-10
0, 0, 173, 0.0002442266559228301, 3.986062156603971e-10
0, 0, 174, 0.0002443161502014846, 3.991698435852267e-10
0, 0, 175, 0.0002444638812448829, 3.998877313416196e-10
0, 0, 176, 0.0002448248851578683, 4.009295510792155e-10
0, 0, 177, 0.0002449417370371521, 4.015615213893579e-10
0, 0, 178, 0.0002449915918987244, 4.021061898069534e-10
0, 0, 179, 0.0002450824831612408, 4.027166603834948e-10
0, 0, 180, 0.0002451612672302872, 4.034916186010778e-10
0, 0, 181, 0.0002455508220009506, 4.04693792433404e-10
0, 0, 182, 0.0002456602815072984, 4.053303420026411e-10
0, 0, 183, 0.0002457390364725143, 4.059453439313436e-10
0, 0, 184, 0.000245898321736604, 4.067190924959555e-10
0, 0, 185, 0.0002459653769619763, 4.074021208490694e-10
0, 0, 186, 0.0002459912211634219, 4.080580780211507e-10
0, 0, 187, 0.0002462535921949893, 4.091012788966718e-10
0, 0, 188, 0.0002463006530888379, 4.097207146525153e-10
0, 0, 189, 0.0002466016449034214, 4.108530187590617e-10
0, 0, 190, 0.0002466474543325603, 4.114500581397624e-10
0, 0, 191, 0.0002466835721861571, 4.121339708384557e-10
0, 0, 192, 0.0002467969316057861, 4.128724006191253e-10
0, 0, 193, 0.0002470889885444194, 4.138907328368553e-10
0, 0, 194, 0.0002472240012139082, 4.14725180211145e-10
0, 0, 195, 0.0002472230407875031, 4.152736304958159e-10
0, 0, 196, 0.0002474670181982219, 4.163377666457611e-10
0, 0, 197, 0.0002476603258401155, 4.172921926256853e-10
0, 0, 198, 0.0002477172529324889, 4.180187098392684e-10
0, 0, 199, 0.0002478145179338753, 4.187999927292155e-10
0, 0, 200, 0.0002479029062669724, 4.196655653545339e-10
0, 0, 201, 0.0002481050614733249, 4.205906616025435e-10
0, 0, 202, 0.0002483248244971037, 4.21636230869593e-10
0, 0, 203, 0.0002483665302861482, 4.223378509978466e-10
0, 0, 204, 0.0002485619334038347, 4.233907302509382e-10
0, 0, 205, 0.0002488855388946831, 4.248266033245275e-10
0, 0, 206, 0.0002488304453436285, 4.259590570471335e-10
0, 0, 207, 0.0002490333572495729, 4.262372038089572e-10
0, 0, 208, 0.0002491605700924993, 4.271379495964639e-10
0, 0, 209, 0.0002493263455107808, 4.281155485490412e-10
0, 0, 210, 0.000249537086347118, 4.292165272368508e-10
0, 0, 211, 0.0002496221277397126, 4.300672597302737e-10
0, 0, 212, 0.0002498450630810112, 4.312371494562318e-10
0, 0, 213, 0.0002499727706890553, 4.321239604851961e-10
0, 0, 214, 0.0002502220741007477, 4.332764117953494e-10
0, 0, 215, 0.0002504598814994097, 4.345068481751118e-10
0, 0, 216, 0.000250624434556812, 4.355245661610068e-10
0, 0, 217, 0.0002508213219698519, 4.3663693846609e-10
0, 0, 218, 0.0002509353507775813, 4.376054342644014e-10
0, 0, 219, 0.0002512027567718178, 4.388486666221705e-10
0, 0, 220, 0.0002513444342184812, 4.398836145891008e-10
0, 0, 221, 0.0002517073007766157, 4.411895148367847e-10
0, 0, 222, 0.0002517315733712167, 4.420985551375208e-10
0, 0, 223, 0.0002519412664696574, 4.432181576468311e-10
0, 0, 224, 0.0002522332943044603, 4.44640535996412e-10
0, 0, 225, 0.0002524617593735456, 4.458927530412996e-10
0, 0, 226, 0.0002525234303902835, 4.468288280591414e-10
0, 0, 227, 0.0002527835604269058, 4.480903385307332e-10
0, 0, 228, 0.0002532479702495039, 4.498079305098314e-10
0, 0, 229, 0.0002535113599151373, 4.514900132005814e-10
0, 0, 230, 0.0002537273394409567, 4.523034835394231e-10
0, 0, 231, 0.0002539982087910175, 4.536662762686589e-10
0, 0, 232, 0.0002542422444093972, 4.550250109926311e-10
0, 0, 233, 0.0002544434391893446, 4.562626112601336e-10
0, 0, 234, 0.0002548325865063816, 4.578193265879057e-10
0, 0, 235, 0.000254963495535776, 4.589840912926282e-10
0, 0, 236, 0.0002552834339439869, 4.604845431678008e-10
0, 0, 237, 0.0002556757535785437, 4.620917620848161e-10
0, 0, 238, 0.0002559309941716492, 4.635035562841763e-10
0, 0, 239, 0.0002561162982601672, 4.648245247887389e-10
0, 0, 240, 0.0002565179893281311, 4.666092763024516e-10
0, 0, 241, 0.0002567618503235281, 4.680251965751566e-10
0, 0, 242, 0.0002570774813648313, 4.695411086966079e-10
0, 0, 243, 0.0002573595847934484, 4.710205170372494e-10
0, 0, 244, 0.0002578645071480423, 4.72990156206696e-10
0, 0, 245, 0.0002580108703114092, 4.742401682466776e-10
0, 0, 246, 0.0002584894828032702, 4.76205426623485e-10
0, 0, 247, 0.0002589757204987109, 4.781758120669572e-10
0, 0, 248, 0.0002592577366158366, 4.797376762957032e-10
0, 0, 249, 0.0002598112041596323, 4.818333069224287e-10
0, 0, 250, 0.0002601956948637962, 4.834323842765343e-10
0, 0, 251, 0.0002604942419566214, 4.850437274520844e-10
0, 0, 252, 0.000261136912740767, 4.873387588347867e-10
0, 0, 253, 0.0002615131088532507, 4.891243058249499e-10
0, 0, 254, 0.0002620884624775499, 4.913382768588185e-10
0, 0, 255, 0.0002623171312734485, 4.929339956926079e-10
0, 0, 256, 0.0002628909423947334, 4.951245056264331e-10
0, 0, 257, 0.0002633978438097984, 4.971535528863143e-10
0, 0, 258, 0.0002639467711560428, 4.993767405835195e-10
0, 0, 259, 0.0002644160122144967, 5.015838812748394e-10
0, 0, 260, 0.0002649209636729211, 5.036903029506025e-10
0, 0, 261, 0.0002654580457601696, 5.059130372777884e-10
0, 0, 262, 0.0002661267062649131, 5.085569199069465e-10
0, 0, 263, 0.0002666173968464136, 5.108415411323216e-10
0, 0, 264, 0.0002671910042408854, 5.129140410250028e-10
0, 0, 265, 0.0002677985175978392, 5.15391228027699e-10
0, 0, 266, 0.0002685092913452536, 5.179518631038148e-10
0, 0, 267, 0.0002693145943339914, 5.206205756220755e-10
0, 0, 268, 0.0002699665492400527, 5.230989940613395e-10
0, 0, 269, 0.0002708600368350744, 5.26174353819423e-10
0, 0, 270, 0.0002715789305511862, 5.289794947183155e-10
0, 0, 271, 0.00027247637626715, 5.318588914978705e-10
0, 0, 272, 0.0002731549902819097, 5.344624659575464e-10
0, 0, 273, 0.0002740572381298989, 5.374837015944398e-10
0, 0, 274, 0.0002750384446699172, 5.406665434427684e-10
0, 0, 275, 0.0002759158087428659, 5.438158018216861e-10
0, 0, 276, 0.000277053884929046, 5.473166752593802e-10
0, 0, 277, 0.0002780668146442622, 5.508115286480131e-10
0, 0, 278, 0.0002790044818539172, 5.54501833466976e-10
0, 0, 279, 0.0002799826324917376, 5.576348556807841e-10
0, 0, 280, 0.0002812560996972024, 5.616469737969825e-10
0, 0, 281, 0.000282347435131669, 5.652369380135131e-10
0, 0, 282, 0.0002836521016433835, 5.692592716402492e-10
0, 0, 283, 0.0002850217570085078, 5.735133761258206e-10
0, 0, 284, 0.0002864866110030562, 5.779117016868895e-10
0, 0, 285, 0.0002877649385482073, 5.819678614442569e-10
0, 0, 286, 0.0002893756318371743, 5.868480125073337e-10
0, 0, 287, 0.0002906867885030806, 5.911191260689423e-10
0, 0, 288, 0.0002923932333942503, 5.962920563258226e-10
0, 0, 289, 0.0002939567202702165, 6.012771835254253e-10
0, 0, 290, 0.0002955875243060291, 6.062421536596276e-10
0, 0, 291, 0.0002975540701299906, 6.118718093739479e-10
0, 0, 292, 0.0002994998940266669, 6.175395225317459e-10
0, 0, 293, 0.0003015386464539915, 6.235755897882871e-10
0, 0, 294, 0.000303695269394666, 6.297063454982946e-10
0, 0, 295, 0.0003060000017285347, 6.362543524441135e-10
0, 0, 296, 0.0003083506599068642, 6.429922329486303e-10
0, 0, 297, 0.0003109638055320829, 6.502762353860606e-10
0, 0, 298, 0.0003134242433588952, 6.573437461381619e-10
0, 0, 299, 0.0003162458306178451, 6.652241594767089e-10
0, 0, 300, 0.0003193277516402304, 6.735851060422971e-10
0, 0, 301, 0.0003223485255148262, 6.820551824061999e-10
0, 0, 302, 0.0003256701747886837, 6.911188801720125e-10
0, 0, 303, 0.0003291971224825829, 7.009968367195597e-10
0, 0, 304, 0.0003330229665152729, 7.110841571875023e-10
0, 0, 305, 0.0003369299811311066, 7.216463444005031e-10
0, 0, 306, 0.0003413472149986774, 7.334446770849285e-10
0, 0, 307, 0.0003460429725237191, 7.457826241124745e-10
0, 0, 308, 0.0003508208610583097, 7.585653591564684e-10
0, 0, 309, 0.0003561439516488463, 7.726449060292605e-10
0, 0, 310, 0.0003618654445745051, 7.877763744757243e-10
0, 0, 311, 0.0003683141549117863, 8.045214680105684e-10
0, 0, 312, 0.000375240808352828, 8.22558352724663e-10
0, 0, 313, 0.0003828273620456457, 8.422609839286005e-10
0, 0, 314, 0.0003914186672773212, 8.644902284338834e-10
0, 0, 315, 0.0004006997914984822, 8.88469557079408e-10
0, 0, 316, 0.0004110339796170592, 9.159686997231995e-10
0, 0, 317, 0.0004230578488204628, 9.47829174371748e-10
0, 0, 318, 0.0004367863293737173, 9.846740445085782e-10
0, 0, 319, 0.0004528854915406555, 1.029428961847733e-09
0, 0, 320, 0.0004723037709482014, 1.084725631057285e-09
0, 0, 321, 0.0004953187308274209, 1.153108821569884e-09
0, 0, 322, 0.0005231332033872604, 1.240644262381167e-09
0, 0, 323, 0.0005562531296163797, 1.347915894997064e-09
0, 0, 324, 0.0005923788412474096, 1.468815782959068e-09
0, 0, 325, 0.0006311942124739289, 1.60697825524016e-09
0, 0, 326, 0.0006674923934042454, 1.749502886336136e-09
0, 0, 327, 0.0006939092418178916, 1.879901812667381e-09
0, 0, 328, 0.0007003974169492722, 1.975679017417427e-09
0, 0, 329, 0.0006866201292723417, 2.044772072269889e-09
0, 0, 330, 0.0006454801768995821, 2.064031111171246e-09
0, 0, 331, 0.0005737143219448626, 2.01683985950755e-09
0, 0, 332, 0.0004767082864418626, 1.892286624817277e-09
0, 0, 333, 0.0003711581812240183, 1.716156714074085e-09
0, 0, 334, 0.0002684338542167097, 1.491568741608688e-09
0, 0, 335, 0.0001801326725399122, 1.246875523742979e-09
0, 0, 336, 0.0001100208464777097, 9.853362632829617e-10
0, 0, 337, 6.1343154811766e-05, 7.425462590268616e-10
0, 0, 338, 3.175600431859493e-05, 5.406194875999526e-10
0, 0, 339, 1.478718604630558e-05, 3.704973170004183e-10
0, 0, 340, 6.218568159965798e-06, 2.429198741321097e-10
0, 0, 341, 2.223976252935245e-06, 1.43630574376859e-10
0, 0, 342, 7.341155310314207e-07, 8.187526059786169e-11
0, 0, 343, 2.373448353409913e-07, 4.928107345051807e-11
0, 0, 344, 5.319918727764161e-08, 2.438495801649461e-11
0, 0, 345, 1.200069643658708e-08, 9.817322984052949e-12
0, 0, 346, 3.555645708419597e-11, 1.743800389764998e-14
0, 0, 347, 4.185229940389945e-11, 3.653932838797181e-14
0, 0, 348, 4.948453452557899e-11, 4.65609766957424e-14
0, 0, 349, 2.037672981736183e-12, 2.037665848148705e-15
