# TOPAS Version: 3.9
# Parameter File: carbone_430MeVbroad.txt
# Results for scorer: DoseAtPhantom
# Scored in component: Phantom
# X in 1 bin  of 1 cm
# Y in 1 bin  of 1 cm
# Z in 350 bins of 0.1 cm
# DoseToMedium ( Gy ) : Sum   Standard_Deviation   
0, 0, 0, 0.0005066300509497523, 7.524139489231405e-09
0, 0, 1, 0.0005212474497966468, 7.727836929124135e-09
0, 0, 2, 0.0005248849047347903, 7.776032427797525e-09
0, 0, 3, 0.0005264288047328591, 7.797435677120651e-09
0, 0, 4, 0.000527149299159646, 7.806463162216048e-09
0, 0, 5, 0.0005277106538414955, 7.815912155667811e-09
0, 0, 6, 0.0005281203193590045, 7.821676435300108e-09
0, 0, 7, 0.000528751639649272, 7.830572149032289e-09
0, 0, 8, 0.0005293359281495214, 7.841296753523483e-09
0, 0, 9, 0.000529987970367074, 7.850913599423994e-09
0, 0, 10, 0.0005304137011989951, 7.857060820107444e-09
0, 0, 11, 0.0005308430991135538, 7.86357817435116e-09
0, 0, 12, 0.0005315284361131489, 7.87275171378233e-09
0, 0, 13, 0.0005317655741237104, 7.877298227621959e-09
0, 0, 14, 0.0005326548125594854, 7.889947597869861e-09
0, 0, 15, 0.000532992125954479, 7.894857300049103e-09
0, 0, 16, 0.000533246377017349, 7.90069673250932e-09
0, 0, 17, 0.0005336448084563017, 7.906970594109627e-09
0, 0, 18, 0.0005344250239431858, 7.918498323773623e-09
0, 0, 19, 0.0005348786944523454, 7.924508284735955e-09
0, 0, 20, 0.0005354017484933138, 7.932674591289161e-09
0, 0, 21, 0.0005356725305318832, 7.937791181307438e-09
0, 0, 22, 0.0005365722463466227, 7.950878491955133e-09
0, 0, 23, 0.000537271611392498, 7.960531448326378e-09
0, 0, 24, 0.0005373922176659107, 7.963550506217943e-09
0, 0, 25, 0.0005382901290431619, 7.976513365199343e-09
0, 0, 26, 0.000538684893399477, 7.982602586818999e-09
0, 0, 27, 0.000539373024366796, 7.992703230021422e-09
0, 0, 28, 0.000539543922059238, 7.995107187467821e-09
0, 0, 29, 0.0005406355485320091, 8.009916869957492e-09
0, 0, 30, 0.0005413373000919819, 8.019680126498831e-09
0, 0, 31, 0.0005416546482592821, 8.025848023698302e-09
0, 0, 32, 0.0005423793918453157, 8.037532971521927e-09
0, 0, 33, 0.0005425893468782306, 8.039138027460667e-09
0, 0, 34, 0.0005436497740447521, 8.05488784068517e-09
0, 0, 35, 0.0005441015819087625, 8.060090586531868e-09
0, 0, 36, 0.0005446248105727136, 8.066593837417525e-09
0, 0, 37, 0.0005456412909552455, 8.081603933987555e-09
0, 0, 38, 0.0005462791305035353, 8.09155633639322e-09
0, 0, 39, 0.0005465768044814467, 8.09630323348789e-09
0, 0, 40, 0.0005472611519508064, 8.10676099937634e-09
0, 0, 41, 0.0005479382234625518, 8.115871122877061e-09
0, 0, 42, 0.0005489632021635771, 8.13136013386479e-09
0, 0, 43, 0.0005494923098012805, 8.137869828367939e-09
0, 0, 44, 0.0005499418475665152, 8.143501307548044e-09
0, 0, 45, 0.0005505889421328902, 8.155774326216439e-09
0, 0, 46, 0.0005509735783562064, 8.160704746701222e-09
0, 0, 47, 0.0005517430836334825, 8.172689860788175e-09
0, 0, 48, 0.0005526499007828534, 8.185886660009407e-09
0, 0, 49, 0.0005532049690373242, 8.195949661156789e-09
0, 0, 50, 0.0005533109651878476, 8.197527282967701e-09
0, 0, 51, 0.0005541484570130706, 8.212172887645818e-09
0, 0, 52, 0.0005547397304326296, 8.221448449051208e-09
0, 0, 53, 0.0005554914241656661, 8.231925410111325e-09
0, 0, 54, 0.000555991951841861, 8.241198109000992e-09
0, 0, 55, 0.0005570770590566099, 8.256403926826449e-09
0, 0, 56, 0.0005574084934778512, 8.26052994914875e-09
0, 0, 57, 0.0005578396376222372, 8.265665583210363e-09
0, 0, 58, 0.0005589714855886996, 8.282075196886395e-09
0, 0, 59, 0.0005593395326286554, 8.288099664609866e-09
0, 0, 60, 0.000560336047783494, 8.303392672486305e-09
0, 0, 61, 0.0005610656226053834, 8.315800829823781e-09
0, 0, 62, 0.0005617476417683065, 8.324275021062398e-09
0, 0, 63, 0.0005626119673252106, 8.337700521653076e-09
0, 0, 64, 0.0005633738473989069, 8.348851700186489e-09
0, 0, 65, 0.0005639602313749492, 8.35574155986083e-09
0, 0, 66, 0.0005645205965265632, 8.364265524462694e-09
0, 0, 67, 0.0005652443505823612, 8.375243789167475e-09
0, 0, 68, 0.0005655972636304796, 8.383034705683972e-09
0, 0, 69, 0.000566765433177352, 8.400249089781372e-09
0, 0, 70, 0.0005675872089341283, 8.4112083309666e-09
0, 0, 71, 0.0005681077600456774, 8.418696432428603e-09
0, 0, 72, 0.0005687563098035753, 8.428751242804801e-09
0, 0, 73, 0.0005697531159967184, 8.443932491359196e-09
0, 0, 74, 0.0005704336217604578, 8.454049992933535e-09
0, 0, 75, 0.0005709186079911888, 8.462944839325814e-09
0, 0, 76, 0.0005717409076169133, 8.475224960797676e-09
0, 0, 77, 0.0005722640780732036, 8.485017263754038e-09
0, 0, 78, 0.0005729995318688452, 8.496047932374841e-09
0, 0, 79, 0.0005734488950110972, 8.50290220485738e-09
0, 0, 80, 0.0005747125251218677, 8.522191477264509e-09
0, 0, 81, 0.0005755653837695718, 8.533769698733399e-09
0, 0, 82, 0.0005762181826867163, 8.544439423557258e-09
0, 0, 83, 0.0005771746509708464, 8.557420339903997e-09
0, 0, 84, 0.0005775172030553222, 8.563584685939044e-09
0, 0, 85, 0.0005787661066278815, 8.582487999931444e-09
0, 0, 86, 0.0005796740297228098, 8.595184472366804e-09
0, 0, 87, 0.0005800369544886053, 8.60113966826115e-09
0, 0, 88, 0.0005811982555314898, 8.618135114637872e-09
0, 0, 89, 0.0005817104247398674, 8.627478431409377e-09
0, 0, 90, 0.0005827032728120685, 8.641975820927431e-09
0, 0, 91, 0.0005834719049744308, 8.652102330040245e-09
0, 0, 92, 0.0005844266852363944, 8.667056657696973e-09
0, 0, 93, 0.0005852250033058226, 8.678319730945814e-09
0, 0, 94, 0.0005862866528332233, 8.694614181543885e-09
0, 0, 95, 0.000586789334192872, 8.703462961354041e-09
0, 0, 96, 0.0005879492964595556, 8.719579785289201e-09
0, 0, 97, 0.0005888971500098705, 8.733708807800482e-09
0, 0, 98, 0.0005898083327338099, 8.748903058023357e-09
0, 0, 99, 0.0005905030411668122, 8.759676554397859e-09
0, 0, 100, 0.0005915533984079957, 8.77541362778529e-09
0, 0, 101, 0.0005921288975514472, 8.783577709261588e-09
0, 0, 102, 0.0005929096951149404, 8.795493514344462e-09
0, 0, 103, 0.0005939808906987309, 8.811034495527623e-09
0, 0, 104, 0.0005949342739768326, 8.827820207164926e-09
0, 0, 105, 0.0005956315435469151, 8.838415494718031e-09
0, 0, 106, 0.0005967125180177391, 8.853613074408662e-09
0, 0, 107, 0.0005975763197056949, 8.866170426399674e-09
0, 0, 108, 0.0005985225434415042, 8.883471762896497e-09
0, 0, 109, 0.0005993541562929749, 8.895185565709424e-09
0, 0, 110, 0.000600322091486305, 8.909431613682155e-09
0, 0, 111, 0.0006014056853018701, 8.927386577422484e-09
0, 0, 112, 0.0006024037138558924, 8.942552856536528e-09
0, 0, 113, 0.0006035064579918981, 8.958522298700004e-09
0, 0, 114, 0.0006040449952706695, 8.967521293623108e-09
0, 0, 115, 0.0006053993129171431, 8.987809468626654e-09
0, 0, 116, 0.0006065628258511424, 9.003863061572607e-09
0, 0, 117, 0.0006072912365198135, 9.016443126298388e-09
0, 0, 118, 0.0006082328618504107, 9.03083988761532e-09
0, 0, 119, 0.0006093451520428061, 9.047201581476595e-09
0, 0, 120, 0.0006101124454289675, 9.061236868754578e-09
0, 0, 121, 0.0006110150134190917, 9.074993134499587e-09
0, 0, 122, 0.0006119736353866756, 9.09108968814576e-09
0, 0, 123, 0.0006134394207037985, 9.11312437931781e-09
0, 0, 124, 0.0006141772610135376, 9.122432515094272e-09
0, 0, 125, 0.0006154312868602574, 9.141440800312015e-09
0, 0, 126, 0.0006166159873828292, 9.15885998872547e-09
0, 0, 127, 0.000617747544310987, 9.17572549942647e-09
0, 0, 128, 0.0006190675776451826, 9.195120269410534e-09
0, 0, 129, 0.0006199078052304685, 9.207696102576055e-09
0, 0, 130, 0.0006212553707882762, 9.229140277327967e-09
0, 0, 131, 0.0006224142853170633, 9.244417161690785e-09
0, 0, 132, 0.0006236471235752106, 9.262843547721407e-09
0, 0, 133, 0.0006245967233553529, 9.279386053872509e-09
0, 0, 134, 0.0006260754889808595, 9.300626762236975e-09
0, 0, 135, 0.0006270234589464962, 9.314167392869076e-09
0, 0, 136, 0.0006281754467636347, 9.33172239120928e-09
0, 0, 137, 0.0006295132916420698, 9.349722856613398e-09
0, 0, 138, 0.0006305459537543356, 9.365068530305047e-09
0, 0, 139, 0.0006320463726297021, 9.387714987394703e-09
0, 0, 140, 0.0006333354976959527, 9.40805136063073e-09
0, 0, 141, 0.0006344797438941896, 9.423396763669731e-09
0, 0, 142, 0.0006356681697070599, 9.440330243169929e-09
0, 0, 143, 0.0006372384377755225, 9.465309990871654e-09
0, 0, 144, 0.0006384052103385329, 9.483337811217249e-09
0, 0, 145, 0.0006397945107892156, 9.504207627828173e-09
0, 0, 146, 0.0006409551715478301, 9.522109997272133e-09
0, 0, 147, 0.0006422074511647224, 9.54196899888313e-09
0, 0, 148, 0.0006434657261706889, 9.56140127280468e-09
0, 0, 149, 0.0006446997285820544, 9.580795496416507e-09
0, 0, 150, 0.0006461900193244219, 9.602689238984081e-09
0, 0, 151, 0.0006475519039668143, 9.625226150157431e-09
0, 0, 152, 0.0006486847414635122, 9.641243299364947e-09
0, 0, 153, 0.000650272355414927, 9.664698296804073e-09
0, 0, 154, 0.0006516739376820624, 9.689160874294944e-09
0, 0, 155, 0.0006526145152747631, 9.705675231994931e-09
0, 0, 156, 0.0006541968323290348, 9.728743590241001e-09
0, 0, 157, 0.0006556963198818266, 9.749245885770272e-09
0, 0, 158, 0.0006575393490493298, 9.776339016279331e-09
0, 0, 159, 0.0006587621755897999, 9.794864937774975e-09
0, 0, 160, 0.0006601622444577515, 9.817109037941585e-09
0, 0, 161, 0.0006615074817091227, 9.838877516768526e-09
0, 0, 162, 0.0006630542920902371, 9.860740095002553e-09
0, 0, 163, 0.0006651394651271403, 9.890760224445942e-09
0, 0, 164, 0.0006664929096587002, 9.913914733272063e-09
0, 0, 165, 0.0006676869816146791, 9.933397803455603e-09
0, 0, 166, 0.000668959750328213, 9.953175430543119e-09
0, 0, 167, 0.0006706728017888963, 9.983221881834343e-09
0, 0, 168, 0.0006720320670865476, 1.000407832671433e-08
0, 0, 169, 0.0006738535594195127, 1.00311103891009e-08
0, 0, 170, 0.0006749594467692077, 1.005068248409853e-08
0, 0, 171, 0.0006770629552192986, 1.008238969493358e-08
0, 0, 172, 0.0006784339202567935, 1.010419464838196e-08
0, 0, 173, 0.0006798696122132242, 1.012734865171427e-08
0, 0, 174, 0.0006818067631684244, 1.01559339139342e-08
0, 0, 175, 0.0006836398970335722, 1.018499364035536e-08
0, 0, 176, 0.0006855072570033371, 1.021186845991686e-08
0, 0, 177, 0.0006868760101497173, 1.023303083981307e-08
0, 0, 178, 0.0006888838834129274, 1.026373172360171e-08
0, 0, 179, 0.0006912641692906618, 1.029682280975089e-08
0, 0, 180, 0.0006931874668225646, 1.03227622990333e-08
0, 0, 181, 0.0006950820097699761, 1.034987185346947e-08
0, 0, 182, 0.0006971231196075678, 1.038104459004419e-08
0, 0, 183, 0.0006988876266404986, 1.040779354863012e-08
0, 0, 184, 0.00070110586239025, 1.044171094163232e-08
0, 0, 185, 0.0007030854467302561, 1.047204731969795e-08
0, 0, 186, 0.0007047541439533234, 1.04974547241027e-08
0, 0, 187, 0.000706668826751411, 1.052903593324122e-08
0, 0, 188, 0.000708978739567101, 1.05620815802368e-08
0, 0, 189, 0.0007106953416951001, 1.058955102816818e-08
0, 0, 190, 0.0007126426789909601, 1.062266098326045e-08
0, 0, 191, 0.0007144944975152612, 1.065320986311594e-08
0, 0, 192, 0.000716598064173013, 1.068500088572425e-08
0, 0, 193, 0.0007182901026681066, 1.07114639469255e-08
0, 0, 194, 0.0007204569992609322, 1.074538706917762e-08
0, 0, 195, 0.0007228347240015864, 1.078244182894667e-08
0, 0, 196, 0.0007254458032548428, 1.081948649600775e-08
0, 0, 197, 0.0007277995464392006, 1.0856164739833e-08
0, 0, 198, 0.0007298651617020369, 1.088723781991402e-08
0, 0, 199, 0.0007322481251321733, 1.092299167747179e-08
0, 0, 200, 0.0007344828918576241, 1.095803159848751e-08
0, 0, 201, 0.0007371768588200212, 1.099992986391975e-08
0, 0, 202, 0.0007396134897135198, 1.103723081186551e-08
0, 0, 203, 0.0007417359156534076, 1.107128570880998e-08
0, 0, 204, 0.0007442565402016044, 1.111021196118884e-08
0, 0, 205, 0.0007464723312295973, 1.114617214912177e-08
0, 0, 206, 0.0007494179881177843, 1.119097513168648e-08
0, 0, 207, 0.0007516147452406585, 1.122633465132199e-08
0, 0, 208, 0.0007544237305410206, 1.126817733829652e-08
0, 0, 209, 0.0007571739843115211, 1.131016487366424e-08
0, 0, 210, 0.0007601190591230989, 1.135332930688584e-08
0, 0, 211, 0.0007627859013155103, 1.139487059309348e-08
0, 0, 212, 0.0007651555933989584, 1.14311883879504e-08
0, 0, 213, 0.0007682100986130536, 1.148044532732844e-08
0, 0, 214, 0.0007707197219133377, 1.151865649316509e-08
0, 0, 215, 0.0007739475695416331, 1.157009988183959e-08
0, 0, 216, 0.000776442582719028, 1.161108668069113e-08
0, 0, 217, 0.000779539521317929, 1.165953804861596e-08
0, 0, 218, 0.0007825347711332142, 1.170595298387689e-08
0, 0, 219, 0.0007857703603804111, 1.175401743024324e-08
0, 0, 220, 0.0007891220157034695, 1.180560163640411e-08
0, 0, 221, 0.0007922524819150567, 1.185605309281851e-08
0, 0, 222, 0.0007951298612169921, 1.190149900821149e-08
0, 0, 223, 0.0007984199328348041, 1.195575894706138e-08
0, 0, 224, 0.0008018623339012265, 1.20072297125041e-08
0, 0, 225, 0.0008054536883719265, 1.206146767876898e-08
0, 0, 226, 0.0008086427696980536, 1.211269948684756e-08
0, 0, 227, 0.0008127889013849199, 1.217550988504716e-08
0, 0, 228, 0.0008157907286658883, 1.222073534219459e-08
0, 0, 229, 0.0008193348185159266, 1.228190076574233e-08
0, 0, 230, 0.0008229747763834894, 1.233962238667786e-08
0, 0, 231, 0.0008265686919912696, 1.239650560127811e-08
0, 0, 232, 0.0008311060955747962, 1.246203935562922e-08
0, 0, 233, 0.0008351625292561948, 1.252413709293322e-08
0, 0, 234, 0.0008391155861318111, 1.258573255146546e-08
0, 0, 235, 0.0008428753353655338, 1.264704297403061e-08
0, 0, 236, 0.0008474416681565344, 1.271755774102671e-08
0, 0, 237, 0.0008512097410857677, 1.277720045303447e-08
0, 0, 238, 0.0008555056410841644, 1.284633548610273e-08
0, 0, 239, 0.0008599166758358479, 1.291620064750967e-08
0, 0, 240, 0.0008645645575597882, 1.298962065686209e-08
0, 0, 241, 0.0008690660470165312, 1.305854094633459e-08
0, 0, 242, 0.0008737340103834867, 1.313610004201331e-08
0, 0, 243, 0.0008780098869465292, 1.32039915808764e-08
0, 0, 244, 0.0008837655768729746, 1.32902153852667e-08
0, 0, 245, 0.0008888550219126046, 1.336880745631451e-08
0, 0, 246, 0.0008937973179854453, 1.344602074436045e-08
0, 0, 247, 0.0008993179653771222, 1.353040189865701e-08
0, 0, 248, 0.0009052901295945048, 1.361954212922362e-08
0, 0, 249, 0.0009107434889301658, 1.370382727378808e-08
0, 0, 250, 0.0009167164098471403, 1.379916256063342e-08
0, 0, 251, 0.0009223243105225265, 1.388790161544427e-08
0, 0, 252, 0.0009282141108997166, 1.398106852639152e-08
0, 0, 253, 0.0009346544975414872, 1.40777328863424e-08
0, 0, 254, 0.0009412302169948816, 1.417910067287765e-08
0, 0, 255, 0.0009479018626734614, 1.428139816765856e-08
0, 0, 256, 0.0009549717651680112, 1.438892754151772e-08
0, 0, 257, 0.000962207792326808, 1.450143340579326e-08
0, 0, 258, 0.0009688045829534531, 1.460754586963931e-08
0, 0, 259, 0.000976070121396333, 1.472251873437176e-08
0, 0, 260, 0.0009837404359132051, 1.484393025249293e-08
0, 0, 261, 0.0009914792608469725, 1.496508219859012e-08
0, 0, 262, 0.0009998688474297523, 1.509209012208937e-08
0, 0, 263, 0.001008037710562348, 1.521747322810103e-08
0, 0, 264, 0.001016658497974277, 1.535389541387861e-08
0, 0, 265, 0.001025987672619522, 1.549398994849841e-08
0, 0, 266, 0.00103535212110728, 1.563954541123827e-08
0, 0, 267, 0.001044436008669436, 1.578369613835563e-08
0, 0, 268, 0.001054011634550989, 1.593528736333447e-08
0, 0, 269, 0.001064618700183928, 1.610181778772738e-08
0, 0, 270, 0.001075001200661063, 1.626363101184076e-08
0, 0, 271, 0.001086101867258549, 1.644004019451426e-08
0, 0, 272, 0.001096874009817839, 1.660999443802818e-08
0, 0, 273, 0.00110895826946944, 1.679777972203342e-08
0, 0, 274, 0.001121518085710704, 1.699420571709938e-08
0, 0, 275, 0.001134778023697436, 1.719553513345406e-08
0, 0, 276, 0.0011483522830531, 1.741096906987144e-08
0, 0, 277, 0.001163215842097998, 1.763764314521091e-08
0, 0, 278, 0.001178458915092051, 1.787209717394085e-08
0, 0, 279, 0.001194717595353723, 1.812017396762904e-08
0, 0, 280, 0.001210989779792726, 1.837077339365766e-08
0, 0, 281, 0.001229032408446074, 1.864643086929041e-08
0, 0, 282, 0.001247422187589109, 1.892914319910315e-08
0, 0, 283, 0.001267054467462003, 1.923657048812172e-08
0, 0, 284, 0.001287741120904684, 1.955294571308853e-08
0, 0, 285, 0.001309663406573236, 1.989302765367124e-08
0, 0, 286, 0.001332831452600658, 2.025458703769542e-08
0, 0, 287, 0.001357641071081161, 2.063932428206385e-08
0, 0, 288, 0.0013841288164258, 2.105214005475356e-08
0, 0, 289, 0.001412993296980858, 2.149906014311717e-08
0, 0, 290, 0.001443787943571806, 2.197328393397905e-08
0, 0, 291, 0.001477238489314914, 2.249016135217035e-08
0, 0, 292, 0.001513605704531074, 2.305616030779595e-08
0, 0, 293, 0.00155362777877599, 2.367421066768729e-08
0, 0, 294, 0.001597240217961371, 2.434880213722419e-08
0, 0, 295, 0.001645669573917985, 2.510070872132099e-08
0, 0, 296, 0.001699343672953546, 2.593285723510734e-08
0, 0, 297, 0.00176072760950774, 2.687740812605211e-08
0, 0, 298, 0.001829101704061031, 2.793793985805114e-08
0, 0, 299, 0.001908070873469114, 2.916327996120012e-08
0, 0, 300, 0.002002063440158963, 3.06119782179548e-08
0, 0, 301, 0.002113194670528173, 3.232360199822188e-08
0, 0, 302, 0.002248261589556932, 3.44170520562031e-08
0, 0, 303, 0.00241871178150177, 3.706937316722929e-08
0, 0, 304, 0.002642646431922913, 4.058612207152622e-08
0, 0, 305, 0.002964590676128864, 4.578207046805682e-08
0, 0, 306, 0.003503902116790414, 5.523569837607908e-08
0, 0, 307, 0.004488043487071991, 7.352852289959764e-08
0, 0, 308, 0.005293716676533222, 9.176549409942898e-08
0, 0, 309, 0.003542192513123155, 8.211153629539628e-08
0, 0, 310, 0.0009343179990537465, 4.34359784433105e-08
0, 0, 311, 7.396531145786867e-05, 1.177647756971207e-08
0, 0, 312, 1.438577442058886e-06, 1.565612026057048e-09
0, 0, 313, 1.593714493708376e-09, 7.68469871855859e-13
0, 0, 314, 9.972380698997085e-10, 5.914816234692897e-13
0, 0, 315, 1.183445008656747e-09, 6.95329390760367e-13
0, 0, 316, 7.803886981072594e-10, 5.804496395187745e-13
0, 0, 317, 6.799856233641322e-10, 5.308539342906639e-13
0, 0, 318, 6.219064152546139e-10, 5.230879788166772e-13
0, 0, 319, 7.567664273011587e-10, 5.902668878246198e-13
0, 0, 320, 8.870054690746088e-10, 6.858172945373522e-13
0, 0, 321, 4.416847443344807e-10, 4.535328727756845e-13
0, 0, 322, 5.65143210007335e-10, 4.568177792883065e-13
0, 0, 323, 3.17694398566104e-10, 3.658454752006041e-13
0, 0, 324, 5.80601067223796e-10, 1.110209554497896e-12
0, 0, 325, 5.897723420744683e-10, 5.249833423163831e-13
0, 0, 326, 2.780254082512812e-10, 3.242286211502928e-13
0, 0, 327, 4.279999410439217e-10, 4.918149114770953e-13
0, 0, 328, 2.513631247591519e-10, 3.259363900640791e-13
0, 0, 329, 2.104122154289456e-10, 2.648542000623289e-13
0, 0, 330, 3.076687793424071e-10, 4.08616518146255e-13
0, 0, 331, 3.198355746913961e-10, 4.077338925046529e-13
0, 0, 332, 3.861338748745169e-10, 4.679330428310594e-13
0, 0, 333, 2.625465678196548e-10, 3.69849152118677e-13
0, 0, 334, 1.636463325960236e-10, 2.311209235986087e-13
0, 0, 335, 2.454409175900452e-10, 3.380384569463858e-13
0, 0, 336, 4.897227068312304e-10, 5.283339939672185e-13
0, 0, 337, 1.642568997484162e-10, 3.173561800140843e-13
0, 0, 338, 8.323709083102315e-11, 1.61966163163569e-13
0, 0, 339, 2.236980184422421e-10, 3.588720870255355e-13
0, 0, 340, 1.362706891772092e-10, 2.102013881208635e-13
0, 0, 341, 2.802421072978234e-10, 3.649472862122038e-13
0, 0, 342, 2.635979282072931e-11, 5.843219179624965e-14
0, 0, 343, 8.770940224112067e-11, 1.723729715357287e-13
0, 0, 344, 1.242968783454756e-10, 2.352399961246002e-13
0, 0, 345, 4.631397002019533e-11, 9.21264252198935e-14
0, 0, 346, 3.736471895776639e-11, 5.519461311914663e-14
0, 0, 347, 2.273208010716843e-10, 4.440134950824952e-13
0, 0, 348, 4.499849798333955e-11, 6.36984429312846e-14
0, 0, 349, 8.72056316048031e-11, 1.973819791570648e-13
