# TOPAS Version: 3.9
# Parameter File: proton_122MeV03.txt
# Results for scorer: DoseAtPhantom
# Scored in component: Phantom
# X in 1 bin  of 1 cm
# Y in 1 bin  of 1 cm
# Z in 100 bins of 0.15 cm
# DoseToMedium ( Gy ) : Sum   Standard_Deviation   
0, 0, 0, 3.160859023410012e-07, 4.779866220032857e-10
0, 0, 1, 3.171056448536547e-07, 4.79305118573716e-10
0, 0, 2, 3.236592363009549e-07, 4.902744753155046e-10
0, 0, 3, 3.275332005614473e-07, 4.933679685841062e-10
0, 0, 4, 3.280906639702152e-07, 4.930793306821961e-10
0, 0, 5, 3.304803044557048e-07, 4.968017592228977e-10
0, 0, 6, 3.313456033993134e-07, 5.007669747526513e-10
0, 0, 7, 3.350484689690347e-07, 5.051332777586556e-10
0, 0, 8, 3.341566241488181e-07, 5.06134275908013e-10
0, 0, 9, 3.327102149341954e-07, 5.048633864383113e-10
0, 0, 10, 3.328531761326303e-07, 5.068466468631152e-10
0, 0, 11, 3.418463165871799e-07, 5.204288575126912e-10
0, 0, 12, 3.397198895527254e-07, 5.164531830056153e-10
0, 0, 13, 3.443679190695548e-07, 5.242790581409313e-10
0, 0, 14, 3.45672390267282e-07, 5.244616036447335e-10
0, 0, 15, 3.469585578841361e-07, 5.245338852954728e-10
0, 0, 16, 3.539950057529495e-07, 5.339773504628134e-10
0, 0, 17, 3.545480922184652e-07, 5.353927101148295e-10
0, 0, 18, 3.560002426183928e-07, 5.379653145162542e-10
0, 0, 19, 3.617146262513415e-07, 5.45482969994098e-10
0, 0, 20, 3.636397991613194e-07, 5.510495493538183e-10
0, 0, 21, 3.671528929771739e-07, 5.556856870179635e-10
0, 0, 22, 3.693886014843883e-07, 5.566112326860352e-10
0, 0, 23, 3.768869873965741e-07, 5.666671507298501e-10
0, 0, 24, 3.804932759976509e-07, 5.711798025249805e-10
0, 0, 25, 3.850468317523337e-07, 5.76895084781742e-10
0, 0, 26, 3.926708700419113e-07, 5.870289046492574e-10
0, 0, 27, 3.925228497791977e-07, 5.874104157966518e-10
0, 0, 28, 3.99135871020917e-07, 5.981842282165981e-10
0, 0, 29, 3.969836086525902e-07, 5.977026814704813e-10
0, 0, 30, 4.023731321467494e-07, 6.067139116646427e-10
0, 0, 31, 4.045509740535636e-07, 6.100881813545595e-10
0, 0, 32, 4.093944880878553e-07, 6.187199983546878e-10
0, 0, 33, 4.108206326236541e-07, 6.207975167119045e-10
0, 0, 34, 4.146997980569722e-07, 6.295333915697934e-10
0, 0, 35, 4.162883158187469e-07, 6.327821244697644e-10
0, 0, 36, 4.190314939478412e-07, 6.415791422470731e-10
0, 0, 37, 4.249225753483188e-07, 6.483230348753728e-10
0, 0, 38, 4.348194977410458e-07, 6.618627690281037e-10
0, 0, 39, 4.422637687184761e-07, 6.706536202425473e-10
0, 0, 40, 4.444601700015482e-07, 6.742193953892893e-10
0, 0, 41, 4.525263079813158e-07, 6.880232028532389e-10
0, 0, 42, 4.562174353850423e-07, 6.939605269464963e-10
0, 0, 43, 4.661068828681891e-07, 7.044618440616145e-10
0, 0, 44, 4.83884605273488e-07, 7.309069806242829e-10
0, 0, 45, 4.905938340016291e-07, 7.395081407313334e-10
0, 0, 46, 4.950704237671744e-07, 7.480114049178068e-10
0, 0, 47, 5.053886980022071e-07, 7.646252497106182e-10
0, 0, 48, 5.110996426083148e-07, 7.752418762454625e-10
0, 0, 49, 5.198629082769912e-07, 7.937135252787644e-10
0, 0, 50, 5.294522793519718e-07, 8.113694781262229e-10
0, 0, 51, 5.347157525648072e-07, 8.209732970826805e-10
0, 0, 52, 5.514691565622343e-07, 8.442916514974667e-10
0, 0, 53, 5.681385459865851e-07, 8.663571480647891e-10
0, 0, 54, 5.859336056346365e-07, 8.921693879305654e-10
0, 0, 55, 5.991163902763219e-07, 9.185668430917204e-10
0, 0, 56, 6.244173391678487e-07, 9.493505566088544e-10
0, 0, 57, 6.50774950372579e-07, 9.809368008684931e-10
0, 0, 58, 6.743049425494974e-07, 1.019394275890279e-09
0, 0, 59, 6.94543246027024e-07, 1.053338867535763e-09
0, 0, 60, 7.214418928924715e-07, 1.102755203643049e-09
0, 0, 61, 7.545647235929209e-07, 1.160207884384389e-09
0, 0, 62, 7.922540135041345e-07, 1.219192689512222e-09
0, 0, 63, 8.434228107034869e-07, 1.299463410661297e-09
0, 0, 64, 9.073308433471539e-07, 1.401317024099575e-09
0, 0, 65, 9.779492984307581e-07, 1.523074688569176e-09
0, 0, 66, 1.094121671485482e-06, 1.709633338148938e-09
0, 0, 67, 1.25567055420106e-06, 2.013963637473621e-09
0, 0, 68, 1.599023335074889e-06, 2.673082467429162e-09
0, 0, 69, 1.993498926822213e-06, 3.438306506324617e-09
0, 0, 70, 1.377078774567053e-06, 3.105876641953877e-09
0, 0, 71, 3.483321222574887e-07, 1.541893468420351e-09
0, 0, 72, 1.89343243306439e-08, 3.282673167723814e-10
0, 0, 73, 0, 0
0, 0, 74, 0, 0
0, 0, 75, 0, 0
0, 0, 76, 0, 0
0, 0, 77, 0, 0
0, 0, 78, 0, 0
0, 0, 79, 0, 0
0, 0, 80, 0, 0
0, 0, 81, 0, 0
0, 0, 82, 0, 0
0, 0, 83, 0, 0
0, 0, 84, 0, 0
0, 0, 85, 0, 0
0, 0, 86, 0, 0
0, 0, 87, 0, 0
0, 0, 88, 0, 0
0, 0, 89, 0, 0
0, 0, 90, 0, 0
0, 0, 91, 0, 0
0, 0, 92, 0, 0
0, 0, 93, 0, 0
0, 0, 94, 0, 0
0, 0, 95, 0, 0
0, 0, 96, 0, 0
0, 0, 97, 0, 0
0, 0, 98, 0, 0
0, 0, 99, 0, 0
