# TOPAS Version: 3.9
# Parameter File: proton_183MeV01.txt
# Results for scorer: DoseAtPhantom
# Scored in component: Phantom
# X in 1 bin  of 1 cm
# Y in 1 bin  of 1 cm
# Z in 100 bins of 0.15 cm
# DoseToMedium ( Gy ) : Sum   Standard_Deviation   
0, 0, 0, 7.503771257688641e-07, 1.253177506578948e-10
0, 0, 1, 7.585814500998822e-07, 1.254268286383254e-10
0, 0, 2, 7.658964022994041e-07, 1.314285080453494e-10
0, 0, 3, 7.628484013366688e-07, 1.209609872018009e-10
0, 0, 4, 7.667664476684877e-07, 1.292170010756456e-10
0, 0, 5, 7.709580813752837e-07, 1.292207702432722e-10
0, 0, 6, 7.720209964645619e-07, 1.318302522322113e-10
0, 0, 7, 7.854978889554332e-07, 1.36420414837424e-10
0, 0, 8, 7.770157139930234e-07, 1.249070096787689e-10
0, 0, 9, 7.800047683304001e-07, 1.287923267035368e-10
0, 0, 10, 7.86587520451576e-07, 1.341980424865761e-10
0, 0, 11, 7.802761956554605e-07, 1.294573020361656e-10
0, 0, 12, 7.867715225984284e-07, 1.280750176912305e-10
0, 0, 13, 7.863610562708345e-07, 1.260072817682444e-10
0, 0, 14, 7.854882824176457e-07, 1.238595544474789e-10
0, 0, 15, 7.939148645164096e-07, 1.327233334789873e-10
0, 0, 16, 7.916905246929673e-07, 1.245032938717562e-10
0, 0, 17, 7.931323580123717e-07, 1.270825689024542e-10
0, 0, 18, 7.947834888000216e-07, 1.31760068039393e-10
0, 0, 19, 8.002575100363174e-07, 1.286282691765537e-10
0, 0, 20, 8.01841792963387e-07, 1.330305728642837e-10
0, 0, 21, 8.02081899564655e-07, 1.235220592592916e-10
0, 0, 22, 8.144359071593499e-07, 1.313877745407963e-10
0, 0, 23, 8.108507927317987e-07, 1.281222056055357e-10
0, 0, 24, 8.186484024008678e-07, 1.339472833503409e-10
0, 0, 25, 8.17481577541912e-07, 1.343260246300947e-10
0, 0, 26, 8.212575153265789e-07, 1.293710980641886e-10
0, 0, 27, 8.244088576248032e-07, 1.317105635033404e-10
0, 0, 28, 8.293878295262402e-07, 1.304803461412957e-10
0, 0, 29, 8.271827027783729e-07, 1.296120546148329e-10
0, 0, 30, 8.30840519938647e-07, 1.297745944324211e-10
0, 0, 31, 8.253496162069496e-07, 1.266040285712923e-10
0, 0, 32, 8.338920451933518e-07, 1.329995981917894e-10
0, 0, 33, 8.425841429016145e-07, 1.316084512630405e-10
0, 0, 34, 8.416390642196347e-07, 1.286471920389482e-10
0, 0, 35, 8.373719424525916e-07, 1.281984201713541e-10
0, 0, 36, 8.414444891968742e-07, 1.315431342659762e-10
0, 0, 37, 8.595259259891463e-07, 1.416915523848201e-10
0, 0, 38, 8.588191917624499e-07, 1.478686892600663e-10
0, 0, 39, 8.497671046825417e-07, 1.35756692076722e-10
0, 0, 40, 8.527569548277825e-07, 1.373821966718013e-10
0, 0, 41, 8.597493206252693e-07, 1.352883461692436e-10
0, 0, 42, 8.702419336259481e-07, 1.342487489297013e-10
0, 0, 43, 8.670257898302225e-07, 1.315270672281462e-10
0, 0, 44, 8.704987521923613e-07, 1.35960812753251e-10
0, 0, 45, 8.679537586431252e-07, 1.339289675100609e-10
0, 0, 46, 8.77639820373588e-07, 1.385580908372229e-10
0, 0, 47, 8.778214919402672e-07, 1.33632531008891e-10
0, 0, 48, 8.773823196861485e-07, 1.311166700391745e-10
0, 0, 49, 8.782402574070147e-07, 1.310140059201872e-10
0, 0, 50, 8.87022395090753e-07, 1.374019686146078e-10
0, 0, 51, 8.872787020663964e-07, 1.338584145842289e-10
0, 0, 52, 8.881987128006585e-07, 1.31520932041099e-10
0, 0, 53, 8.988006925392256e-07, 1.407033536932161e-10
0, 0, 54, 8.982005397228932e-07, 1.41757116499428e-10
0, 0, 55, 9.077282356884098e-07, 1.381884137149838e-10
0, 0, 56, 9.010680059873266e-07, 1.344925022161578e-10
0, 0, 57, 9.087600574275712e-07, 1.375270636169842e-10
0, 0, 58, 9.12667530883482e-07, 1.381069512794753e-10
0, 0, 59, 9.236007940671698e-07, 1.385752134566605e-10
0, 0, 60, 9.270630698665627e-07, 1.402284402919024e-10
0, 0, 61, 9.276940886593366e-07, 1.384523572862498e-10
0, 0, 62, 9.419370030627761e-07, 1.53413851539438e-10
0, 0, 63, 9.349812444270356e-07, 1.414119164323392e-10
0, 0, 64, 9.420791116099281e-07, 1.37441381192997e-10
0, 0, 65, 9.449311733078503e-07, 1.412560150484649e-10
0, 0, 66, 9.493556376583001e-07, 1.46815331835353e-10
0, 0, 67, 9.556891882311902e-07, 1.470367915945673e-10
0, 0, 68, 9.650834726926405e-07, 1.556665074537765e-10
0, 0, 69, 9.660212754170061e-07, 1.554187611803361e-10
0, 0, 70, 9.646620355852065e-07, 1.475692761275704e-10
0, 0, 71, 9.753139238455333e-07, 1.533831414202097e-10
0, 0, 72, 9.771067652764032e-07, 1.494038230535805e-10
0, 0, 73, 9.79577521320607e-07, 1.580618978821837e-10
0, 0, 74, 9.842641475188429e-07, 1.626476501461347e-10
0, 0, 75, 9.866986374618136e-07, 1.609370520470239e-10
0, 0, 76, 1.000078896140622e-06, 1.659763869945991e-10
0, 0, 77, 1.001756572804879e-06, 1.666726927767303e-10
0, 0, 78, 1.009448737931962e-06, 1.721028709839855e-10
0, 0, 79, 1.008584945338953e-06, 1.73836782016854e-10
0, 0, 80, 1.002570456876128e-06, 1.734114832115424e-10
0, 0, 81, 1.021002390189096e-06, 1.811592651743559e-10
0, 0, 82, 1.022346509671479e-06, 1.874703230616918e-10
0, 0, 83, 1.024952098305221e-06, 1.933238333979818e-10
0, 0, 84, 1.031202714329993e-06, 1.984955749284185e-10
0, 0, 85, 1.041329710460559e-06, 2.06284945946552e-10
0, 0, 86, 1.042968506226316e-06, 2.063618927124971e-10
0, 0, 87, 1.043671659317624e-06, 2.124227401167003e-10
0, 0, 88, 1.050489800036303e-06, 2.298077190154542e-10
0, 0, 89, 1.04863624983409e-06, 2.41486235877549e-10
0, 0, 90, 1.051703861776332e-06, 2.519802533588882e-10
0, 0, 91, 1.060806539499026e-06, 2.680965521523591e-10
0, 0, 92, 1.064338334799686e-06, 2.755894200096518e-10
0, 0, 93, 1.06228731056035e-06, 2.806603192185432e-10
0, 0, 94, 1.067955167854961e-06, 2.915929067584849e-10
0, 0, 95, 1.066089680534787e-06, 2.971376541969138e-10
0, 0, 96, 1.065489186657942e-06, 3.140879573985477e-10
0, 0, 97, 1.080070205716765e-06, 3.277398314800798e-10
0, 0, 98, 1.078925492947747e-06, 3.377050198604084e-10
0, 0, 99, 1.078533273357607e-06, 3.476182033660385e-10
